1	84302
2	72822
3	73424
4	73462
5	73305
6	73472
7	73454
8	73347
9	73516
10	73496
11	73456
12	73599
13	73576
14	73435
15	73673
16	73576
17	73534
18	73644
19	73605
20	73554
21	73614
22	73642
23	73534
24	73641
25	73659
26	73674
27	73487
28	73597
29	73671
30	73653
31	73639
32	73561
33	73726
34	73518
35	73629
36	73891
37	73880
38	73593
39	73575
40	73609
41	73644
42	73765
43	73766
44	73599
45	73746
46	73607
47	73600
48	73841
49	73556
50	73613
51	73740
52	73719
53	73678
54	73684
55	73615
56	73690
57	73854
58	73790
59	73713
60	73849
61	73785
62	73637
63	73783
64	73839
65	73711
66	73718
67	73724
68	73671
69	73766
70	73639
71	73642
72	73851
73	73787
74	73839
75	73941
76	73730
77	73730
78	73799
79	73766
80	73760
81	73806
82	73877
83	73885
84	73957
85	73785
86	73701
87	73729
88	73854
89	73801
90	73937
91	73891
92	73832
93	73811
94	73942
95	73721
96	73842
97	73837
98	73774
99	73847
100	73801
101	73869
102	73813
103	73700
104	73815
105	73899
106	73744
107	73685
108	73900
109	73969
110	73896
111	73796
112	73801
113	73723
114	73801
115	73805
116	73852
117	73895
118	74053
119	73954
120	73795
121	73800
122	73790
123	73909
124	73852
125	73765
126	73786
127	73806
128	73842
129	73997
130	73872
131	73699
132	73847
133	73835
134	73756
135	73756
136	73867
137	73819
138	73869
139	73839
140	73839
141	73970
142	73962
143	73841
144	74053
145	73966
146	73776
147	73838
148	73996
149	73897
150	73959
151	74002
152	73953
153	74044
154	73949
155	73921
156	73995
157	73937
158	74085
159	74044
160	73967
161	73955
162	73967
163	73958
164	74049
165	73993
166	73942
167	73857
168	73985
169	73961
170	74013
171	74005
172	74002
173	73864
174	73903
175	73946
176	74184
177	73995
178	73823
179	73839
180	73993
181	73929
182	74142
183	73934
184	73869
185	74013
186	74006
187	73985
188	73840
189	73975
190	73974
191	73917
192	73954
193	74079
194	73938
195	74192
196	73949
197	74037
198	73962
199	74060
200	73912
201	74076
202	74038
203	74020
204	73917
205	73925
206	74022
207	73987
208	73931
209	74076
210	74052
211	74068
212	73972
213	74017
214	73776
215	74022
216	74052
217	74154
218	74006
219	73865
220	73990
221	73931
222	73953
223	74160
224	73910
225	73984
226	74132
227	73946
228	73983
229	73931
230	73961
231	74039
232	73954
233	73950
234	74007
235	74055
236	74079
237	74069
238	74126
239	74060
240	74184
241	74143
242	74036
243	74124
244	73914
245	74017
246	74215
247	74118
248	73778
249	74086
250	73962
251	74024
252	73995
253	74022
254	74083
255	74205
256	74048
257	74244
258	74156
259	74144
260	74039
261	74114
262	74112
263	74085
264	74053
265	74205
266	74290
267	74247
268	74144
269	74235
270	74270
271	74262
272	74266
273	74382
274	74346
275	74418
276	74266
277	74305
278	74319
279	74494
280	74455
281	74351
282	74469
283	74383
284	74497
285	74361
286	74579
287	74632
288	74555
289	74720
290	74536
291	74683
292	74609
293	74737
294	74835
295	74773
296	74689
297	74895
298	75069
299	75130
300	75226
301	75198
302	75163
303	75384
304	75364
305	75596
306	75682
307	76097
308	76036
309	76100
310	76310
311	76233
312	76310
313	76235
314	76306
315	76288
316	76380
317	76304
318	76507
319	76364
320	76392
321	76839
322	76924
323	77208
324	77823
325	77991
326	78549
327	78642
328	79195
329	79252
330	79434
331	79364
332	79463
333	79283
334	78977
335	78661
336	78278
337	77889
338	77619
339	77207
340	77124
341	76765
342	76481
343	76476
344	76320
345	76214
346	75949
347	75950
348	75855
349	75735
350	75665
351	75796
352	75532
353	75552
354	75389
355	75448
356	75411
357	75342
358	75222
359	75258
360	75280
361	75112
362	75082
363	75039
364	75094
365	75138
366	74991
367	75110
368	75034
369	74957
370	74936
371	74939
372	75022
373	74972
374	74808
375	74940
376	74898
377	74882
378	74887
379	74909
380	74758
381	75504
382	74950
383	74775
384	74715
385	74630
386	75004
387	74591
388	74517
389	74685
390	74475
391	74511
392	74591
393	74502
394	74570
395	74530
396	74376
397	74651
398	74595
399	74550
400	74547
401	74577
402	74480
403	74521
404	74561
405	74548
406	74537
407	74591
408	74589
409	74549
410	74782
411	74554
412	74554
413	74547
414	74581
415	74475
416	74503
417	74534
418	74651
419	74407
420	74544
421	74668
422	74750
423	74619
424	74583
425	74675
426	74628
427	74728
428	74770
429	74819
430	74850
431	74705
432	74865
433	74893
434	74952
435	74953
436	74948
437	75157
438	75223
439	75268
440	75424
441	75507
442	75551
443	75780
444	75897
445	76099
446	76226
447	76194
448	76361
449	76168
450	75989
451	76014
452	75992
453	75737
454	75505
455	75456
456	75263
457	75160
458	75088
459	75117
460	75004
461	75051
462	74954
463	74828
464	74967
465	74957
466	74884
467	74887
468	74804
469	74791
470	74806
471	75022
472	74880
473	74588
474	74710
475	74794
476	74821
477	74829
478	74820
479	74617
480	74737
481	74759
482	74648
483	74699
484	74702
485	74795
486	74704
487	74584
488	74910
489	74607
490	74708
491	74704
492	74680
493	74656
494	74775
495	74630
496	74831
497	74754
498	74778
499	74868
500	74666
501	74826
502	74678
503	74687
504	74703
505	74968
506	74827
507	74875
508	74702
509	74725
510	74749
511	74825
512	74798
513	74919
514	74826
515	74816
516	74843
517	74894
518	74834
519	74853
520	75081
521	75020
522	75082
523	74992
524	74972
525	75066
526	75150
527	75110
528	74944
529	75086
530	75207
531	75232
532	75178
533	75299
534	75367
535	75207
536	75303
537	75429
538	75595
539	75758
540	75877
541	75812
542	75742
543	75969
544	76056
545	76027
546	76066
547	76137
548	76070
549	76293
550	76554
551	76729
552	76662
553	76945
554	77316
555	77567
556	77861
557	78099
558	78229
559	78253
560	78071
561	78132
562	77800
563	77606
564	77372
565	77162
566	76848
567	76834
568	76818
569	76616
570	76446
571	76141
572	76436
573	76229
574	76262
575	76351
576	76312
577	76520
578	76676
579	76656
580	76997
581	77183
582	77398
583	77612
584	77908
585	78011
586	77844
587	77837
588	77513
589	77458
590	77192
591	76836
592	76465
593	76215
594	75878
595	75979
596	75630
597	75469
598	75274
599	75169
600	75192
601	75031
602	75040
603	74893
604	74799
605	74728
606	74572
607	74580
608	74638
609	74721
610	74566
611	74538
612	74638
613	74555
614	74489
615	74426
616	74662
617	74563
618	74447
619	74392
620	74281
621	74367
622	74382
623	74330
624	74231
625	74075
626	74094
627	74073
628	74018
629	73996
630	74103
631	74023
632	74056
633	74115
634	74215
635	74158
636	74022
637	74087
638	74150
639	74000
640	73922
641	73900
642	74053
643	74014
644	74039
645	73914
646	73847
647	73913
648	73869
649	73976
650	74035
651	73911
652	74027
653	73913
654	73932
655	73934
656	74016
657	73933
658	73982
659	73937
660	77145
661	74081
662	74171
663	74025
664	74133
665	74150
666	74054
667	74200
668	74289
669	74233
670	74465
671	74634
672	74628
673	74933
674	75102
675	75426
676	76203
677	76847
678	78003
679	79162
680	80287
681	81309
682	82027
683	82580
684	82424
685	81828
686	81053
687	79763
688	78791
689	77582
690	76657
691	75831
692	75333
693	74845
694	74530
695	74277
696	74232
697	74074
698	73972
699	73826
700	73749
701	73675
702	73601
703	73580
704	73491
705	73447
706	73398
707	73475
708	73427
709	73391
710	73367
711	73383
712	73348
713	73276
714	73297
715	74644
716	73337
717	73184
718	73186
719	73206
720	73061
721	73176
722	73067
723	73164
724	73117
725	73103
726	73123
727	73047
728	73134
729	73167
730	73098
731	73073
732	73018
733	72999
734	72898
735	72938
736	72809
737	72957
738	72848
739	73026
740	72982
741	73118
742	72900
743	72979
744	72972
745	72901
746	72849
747	72979
748	72772
749	72910
750	72933
751	72780
752	72836
753	72829
754	72927
755	72830
756	72796
757	72803
758	72800
759	72772
760	72731
761	72837
762	72758
763	72670
764	72864
765	72886
766	72911
767	72725
768	72700
769	72696
770	72832
771	72789
772	72731
773	72617
774	72877
775	72675
776	72648
777	72816
778	72688
779	72894
780	72735
781	72812
782	72743
783	72740
784	72771
785	72760
786	72917
787	72566
788	72672
789	72729
790	72741
791	72730
792	72712
793	72747
794	72630
795	72828
796	72777
797	72864
798	72932
799	72970
800	73015
801	72855
802	73004
803	72751
804	72717
805	72866
806	72627
807	72704
808	72637
809	72560
810	72479
811	72405
812	72398
813	72474
814	72316
815	72431
816	72629
817	72551
818	72496
819	72780
820	72652
821	72621
822	72655
823	72706
824	72743
825	72665
826	72610
827	72695
828	72769
829	72767
830	72572
831	72635
832	72595
833	72864
834	72577
835	72545
836	72494
837	72456
838	72555
839	72516
840	72371
841	72454
842	72401
843	72634
844	72360
845	72568
846	72466
847	72717
848	72465
849	72489
850	72513
851	72419
852	72443
853	72568
854	72698
855	72542
856	72568
857	72570
858	72552
859	72595
860	72552
861	72610
862	72825
863	72777
864	72858
865	72683
866	72750
867	72767
868	72715
869	72772
870	73007
871	72962
872	72700
873	72626
874	72647
875	72629
876	72579
877	72688
878	72720
879	72773
880	72998
881	72774
882	72822
883	72674
884	72673
885	72843
886	72887
887	72788
888	72751
889	72813
890	72804
891	72850
892	72549
893	72630
894	72550
895	72657
896	72611
897	72423
898	72639
899	72654
900	72882
901	72882
902	72787
903	72813
904	72880
905	72952
906	72992
907	73071
908	72935
909	72974
910	72857
911	72772
912	72674
913	72632
914	72741
915	72713
916	72772
917	73044
918	72915
919	72972
920	73132
921	73121
922	73193
923	73127
924	73069
925	73151
926	73216
927	73219
928	73125
929	73193
930	73039
931	73022
932	72776
933	72927
934	72875
935	72835
936	73080
937	72846
938	72955
939	72700
940	72803
941	72716
942	72522
943	72673
944	72777
945	72774
946	72811
947	72829
948	72732
949	72673
950	72794
951	72861
952	72894
953	72952
954	72896
955	72960
956	73084
957	73116
958	73277
959	73156
960	73235
961	73229
962	73236
963	73230
964	73224
965	73220
966	73190
967	73339
968	73174
969	73131
970	73096
971	72996
972	72890
973	72753
974	72679
975	72658
976	72686
977	72695
978	72772
979	72759
980	73290
981	72784
982	72818
983	72842
984	72933
985	72985
986	73220
987	73085
988	73368
989	73332
990	73608
991	73874
992	73985
993	74120
994	74417
995	74641
996	74816
997	75006
998	75149
999	75240
1000	75330
1001	75324
1002	75388
1003	75398
1004	75441
1005	75198
1006	74968
1007	75190
1008	74834
1009	74514
1010	74341
1011	74190
1012	74034
1013	73767
1014	73963
1015	73750
1016	73342
1017	73414
1018	73465
1019	73279
1020	73040
1021	72927
1022	72861
1023	72888
1024	72876
1025	72742
1026	72826
1027	73182
1028	73197
1029	73175
1030	73350
1031	73889
1032	74251
1033	74393
1034	74386
1035	74522
1036	75204
1037	74440
1038	74216
1039	74131
1040	74197
1041	73973
1042	73920
1043	74058
1044	73929
1045	73833
1046	73606
1047	73506
1048	73501
1049	73568
1050	73427
1051	73376
1052	73266
1053	73235
1054	73172
1055	73242
1056	73304
1057	73627
1058	73589
1059	73640
1060	73467
1061	73605
1062	73625
1063	73808
1064	73902
1065	73809
1066	73748
1067	73699
1068	73793
1069	73816
1070	73655
1071	73726
1072	73762
1073	73908
1074	74001
1075	73819
1076	73997
1077	73797
1078	73888
1079	73952
1080	74155
1081	73863
1082	73966
1083	73968
1084	74306
1085	74243
1086	74490
1087	74640
1088	74730
1089	74720
1090	74915
1091	75187
1092	74958
1093	75047
1094	75239
1095	75392
1096	75392
1097	75580
1098	75702
1099	75845
1100	76060
1101	75887
1102	76052
1103	76023
1104	75860
1105	75505
1106	75513
1107	75257
1108	75048
1109	75000
1110	74985
1111	75581
1112	76458
1113	76524
1114	77537
1115	78504
1116	79173
1117	79697
1118	79869
1119	79677
1120	79601
1121	79326
1122	78849
1123	78698
1124	79254
1125	79393
1126	80686
1127	82433
1128	83642
1129	86495
1130	90751
1131	95323
1132	101784
1133	112071
1134	130323
1135	173288
1136	240542
1137	356364
1138	629965
1139	851953
1140	968138
1141	1115571
1142	1361057
1143	1382402
1144	1184712
1145	1086419
1146	1060131
1147	882075
1148	662705
1149	509860
1150	418167
1151	316785
1152	241439
1153	188724
1154	153664
1155	127477
1156	109070
1157	99508
1158	95157
1159	90992
1160	87675
1161	86058
1162	85006
1163	83421
1164	82237
1165	80980
1166	79775
1167	79026
1168	78165
1169	77343
1170	76913
1171	76387
1172	75824
1173	75639
1174	75365
1175	75210
1176	74956
1177	74663
1178	74463
1179	74336
1180	74072
1181	73891
1182	73928
1183	73788
1184	73563
1185	73468
1186	73434
1187	73393
1188	73174
1189	73062
1190	73028
1191	72910
1192	72932
1193	72778
1194	72685
1195	72574
1196	72724
1197	72401
1198	72600
1199	72388
1200	72390
1201	72399
1202	72347
1203	72488
1204	72342
1205	72286
1206	72411
1207	72706
1208	72325
1209	72399
1210	72606
1211	72610
1212	72711
1213	72633
1214	72704
1215	72710
1216	72694
1217	72830
1218	72932
1219	72823
1220	72876
1221	72808
1222	72975
1223	72869
1224	72863
1225	72692
1226	72729
1227	72841
1228	72786
1229	72713
1230	72795
1231	72770
1232	72688
1233	72622
1234	72727
1235	72420
1236	72198
1237	72197
1238	71980
1239	72084
1240	71831
1241	71747
1242	71725
1243	71560
1244	71690
1245	71672
1246	71566
1247	71504
1248	71522
1249	71602
1250	71429
1251	71643
1252	71487
1253	71557
1254	71674
1255	71534
1256	71474
1257	71465
1258	71422
1259	71535
1260	71522
1261	71484
1262	71562
1263	71353
1264	71580
1265	71577
1266	71624
1267	72007
1268	71670
1269	71548
1270	71557
1271	71531
1272	71419
1273	71501
1274	71515
1275	71426
1276	71477
1277	71485
1278	71556
1279	71471
1280	71397
1281	71473
1282	71519
1283	71719
1284	71602
1285	71510
1286	71538
1287	71470
1288	71454
1289	71388
1290	71361
1291	71463
1292	71688
1293	71534
1294	71575
1295	71563
1296	71518
1297	71764
1298	71580
1299	71474
1300	71519
1301	71528
1302	71475
1303	71441
1304	71510
1305	71491
1306	71336
1307	71337
1308	71435
1309	71464
1310	71458
1311	71575
1312	71487
1313	71530
1314	71564
1315	71580
1316	71404
1317	71478
1318	71487
1319	71514
1320	71401
1321	71455
1322	71478
1323	71576
1324	71517
1325	71462
1326	71488
1327	71448
1328	71427
1329	71477
1330	71327
1331	71443
1332	71490
1333	71456
1334	71493
1335	71507
1336	71473
1337	71370
1338	71441
1339	71470
1340	71484
