1	88381
2	76974
3	77456
4	77569
5	77541
6	77795
7	77802
8	77593
9	77731
10	77673
11	77687
12	77706
13	77866
14	77821
15	77917
16	77857
17	77854
18	77902
19	77971
20	77730
21	78027
22	78026
23	77708
24	77917
25	78001
26	77940
27	77932
28	78064
29	77973
30	78153
31	78172
32	77875
33	77962
34	77855
35	77970
36	78169
37	78229
38	77961
39	78017
40	77983
41	78043
42	78122
43	78024
44	78050
45	78321
46	78181
47	78317
48	78404
49	78087
50	78312
51	78232
52	78230
53	78387
54	78276
55	78237
56	78300
57	78341
58	78413
59	78263
60	78358
61	78344
62	78412
63	78422
64	78418
65	78358
66	78382
67	78459
68	78402
69	78336
70	78428
71	78367
72	78463
73	78555
74	78365
75	78637
76	78405
77	78489
78	78645
79	78541
80	78513
81	78407
82	78489
83	78722
84	78773
85	78585
86	78618
87	78576
88	78539
89	78559
90	78731
91	78825
92	78729
93	78557
94	78803
95	78564
96	78798
97	78718
98	78544
99	78731
100	78750
101	78741
102	78878
103	78758
104	78796
105	78982
106	78753
107	78703
108	78824
109	78883
110	78944
111	78948
112	78763
113	78820
114	78875
115	78869
116	78880
117	78853
118	79034
119	79112
120	78906
121	79037
122	78906
123	79049
124	79023
125	78908
126	79013
127	78941
128	78978
129	79199
130	79172
131	78881
132	79035
133	79151
134	78985
135	79120
136	79050
137	79123
138	79114
139	79058
140	79233
141	79200
142	79173
143	79105
144	79289
145	79144
146	79169
147	79282
148	79314
149	79237
150	79335
151	79263
152	79220
153	79380
154	79504
155	79312
156	79322
157	79470
158	79570
159	79527
160	79466
161	79489
162	79428
163	79365
164	79430
165	79476
166	79375
167	79440
168	79668
169	79563
170	79647
171	79596
172	79714
173	79546
174	79559
175	79528
176	79759
177	79715
178	79556
179	79665
180	79679
181	79521
182	79830
183	79775
184	79608
185	79598
186	79642
187	79608
188	79777
189	79689
190	79821
191	79679
192	79799
193	79755
194	79768
195	79949
196	79776
197	79798
198	79916
199	79989
200	79631
201	79819
202	79831
203	79789
204	79859
205	79977
206	79857
207	80013
208	79882
209	79903
210	79968
211	80048
212	79978
213	79965
214	79994
215	79972
216	80060
217	80169
218	80102
219	79997
220	79969
221	80231
222	79846
223	80209
224	80015
225	80002
226	80281
227	79840
228	79972
229	79993
230	80034
231	80098
232	80146
233	80064
234	80140
235	80214
236	80093
237	80136
238	80292
239	80125
240	80249
241	80185
242	80294
243	80179
244	80043
245	80163
246	80384
247	80354
248	80211
249	80370
250	80289
251	80197
252	80274
253	80360
254	80387
255	80345
256	80254
257	80350
258	80317
259	80497
260	80441
261	80261
262	80286
263	80301
264	80198
265	80460
266	80530
267	80448
268	80388
269	80529
270	80518
271	80388
272	80527
273	80782
274	80427
275	80648
276	80560
277	80680
278	80501
279	80660
280	80745
281	80603
282	80786
283	80665
284	80982
285	80811
286	80944
287	81005
288	80909
289	81214
290	80735
291	80870
292	81012
293	81126
294	81062
295	81018
296	81026
297	81225
298	81330
299	81376
300	81312
301	81468
302	81503
303	81766
304	81911
305	81696
306	82007
307	82104
308	82255
309	82168
310	82387
311	82498
312	82464
313	82215
314	82235
315	82302
316	82424
317	82169
318	82339
319	82407
320	82648
321	82674
322	82882
323	83007
324	83624
325	83701
326	84249
327	84645
328	85063
329	85335
330	85406
331	85155
332	85315
333	85032
334	84744
335	84443
336	83947
337	83626
338	83312
339	83164
340	82921
341	82763
342	82559
343	82469
344	82462
345	82419
346	82232
347	82366
348	82286
349	82072
350	82271
351	82138
352	82127
353	81966
354	82009
355	82027
356	82065
357	82003
358	81811
359	81757
360	82121
361	81791
362	81920
363	81884
364	81885
365	82059
366	81854
367	81904
368	81740
369	81670
370	81747
371	81603
372	81900
373	85403
374	84364
375	82280
376	81823
377	81906
378	81942
379	81846
380	81566
381	82381
382	81812
383	81665
384	81787
385	81709
386	81822
387	81518
388	81553
389	81742
390	81741
391	81589
392	81816
393	81721
394	81513
395	81647
396	81715
397	81830
398	82013
399	81619
400	81614
401	81599
402	81652
403	81689
404	81612
405	81617
406	81713
407	81527
408	81725
409	81635
410	81748
411	81819
412	81821
413	81818
414	81691
415	81760
416	81768
417	81644
418	81827
419	81719
420	81673
421	81787
422	81854
423	81958
424	81737
425	81930
426	81843
427	82045
428	82044
429	81882
430	81975
431	82036
432	82028
433	82271
434	82161
435	82362
436	82267
437	82360
438	82339
439	82410
440	82567
441	82519
442	82950
443	82806
444	83070
445	83117
446	83192
447	83293
448	83253
449	83177
450	82866
451	82676
452	82833
453	82839
454	82572
455	82633
456	82608
457	82399
458	82544
459	82257
460	82291
461	82375
462	82072
463	82325
464	82321
465	82190
466	82168
467	82159
468	81992
469	82302
470	82125
471	82470
472	82172
473	82127
474	82188
475	82114
476	82325
477	82154
478	82262
479	82203
480	82186
481	82135
482	81995
483	82165
484	82154
485	82229
486	82217
487	81921
488	82340
489	82109
490	82205
491	82192
492	82164
493	82205
494	82134
495	82186
496	82373
497	82272
498	82345
499	82294
500	82250
501	82264
502	82312
503	82107
504	82267
505	82578
506	82127
507	82254
508	82291
509	82374
510	82348
511	82153
512	82416
513	82398
514	82409
515	82574
516	82427
517	82400
518	82369
519	82704
520	82693
521	82734
522	82761
523	82580
524	82611
525	82546
526	82557
527	82647
528	82596
529	82619
530	82693
531	82775
532	82654
533	82830
534	82825
535	82678
536	82681
537	83007
538	83000
539	83006
540	83111
541	83342
542	83050
543	83294
544	83416
545	83312
546	83222
547	83407
548	83514
549	83511
550	83500
551	83748
552	83654
553	83567
554	83759
555	84160
556	84477
557	84583
558	84828
559	85029
560	85181
561	85484
562	85286
563	85598
564	85614
565	85464
566	85128
567	84896
568	84878
569	84706
570	84608
571	84358
572	84431
573	84158
574	83942
575	83923
576	83890
577	83954
578	83888
579	83972
580	84117
581	84335
582	84577
583	84626
584	84918
585	85070
586	85192
587	85286
588	85088
589	85054
590	84916
591	84638
592	84402
593	84044
594	83893
595	84030
596	83638
597	83371
598	83205
599	83221
600	83166
601	82850
602	83009
603	82743
604	82845
605	82689
606	82867
607	82734
608	82771
609	82986
610	82937
611	82630
612	82843
613	82813
614	82748
615	82688
616	82762
617	82862
618	82582
619	82662
620	82562
621	82613
622	82567
623	82541
624	82358
625	82366
626	82552
627	82469
628	82382
629	82424
630	82466
631	82450
632	82494
633	82462
634	82593
635	82413
636	82412
637	82561
638	82522
639	82443
640	82435
641	82439
642	82522
643	82387
644	82394
645	82417
646	82324
647	82343
648	82368
649	82242
650	82410
651	82348
652	82422
653	82372
654	82295
655	82279
656	82417
657	82446
658	82471
659	82382
660	85468
661	82582
662	82569
663	82488
664	82469
665	82467
666	82607
667	82619
668	82785
669	82585
670	82733
671	82852
672	82792
673	82907
674	83182
675	83427
676	83832
677	84265
678	84993
679	86175
680	86944
681	87786
682	88889
683	89568
684	90091
685	90123
686	89912
687	89160
688	88415
689	87135
690	86145
691	85259
692	84519
693	84033
694	83578
695	83187
696	82976
697	82742
698	82690
699	82492
700	82356
701	82443
702	82335
703	82268
704	82179
705	82380
706	82236
707	82185
708	82067
709	82110
710	81921
711	82015
712	82227
713	81962
714	82114
715	83499
716	82238
717	82084
718	81906
719	82055
720	82114
721	81986
722	81972
723	81896
724	82019
725	81999
726	82062
727	82031
728	82021
729	82001
730	81992
731	81999
732	81824
733	81872
734	81646
735	81692
736	81714
737	81717
738	81847
739	81925
740	81889
741	81850
742	81641
743	81860
744	81689
745	81713
746	81774
747	81815
748	81586
749	81707
750	81712
751	81692
752	81586
753	81740
754	81746
755	81780
756	81754
757	81761
758	81505
759	81582
760	81707
761	81660
762	81721
763	81580
764	81777
765	81756
766	81796
767	81762
768	81545
769	81665
770	81777
771	81549
772	81523
773	81354
774	81729
775	81490
776	81635
777	81631
778	81557
779	81776
780	81648
781	81655
782	81634
783	81579
784	81561
785	81567
786	81572
787	81493
788	81623
789	81636
790	81477
791	81685
792	81539
793	81699
794	81657
795	81690
796	81692
797	81574
798	81935
799	81738
800	81936
801	81888
802	81870
803	81585
804	81555
805	81719
806	81433
807	81569
808	81369
809	81334
810	81096
811	81095
812	81250
813	81200
814	81015
815	81282
816	81329
817	81354
818	81395
819	81457
820	81398
821	81342
822	81460
823	81380
824	81587
825	81438
826	81472
827	81764
828	81650
829	81677
830	81512
831	81579
832	81429
833	81663
834	81331
835	81280
836	81250
837	81128
838	81051
839	81203
840	81039
841	81007
842	81097
843	81205
844	81171
845	81177
846	81323
847	81482
848	81088
849	81223
850	81106
851	81086
852	81119
853	81201
854	81357
855	81176
856	81151
857	81216
858	81259
859	81390
860	81403
861	81356
862	81604
863	81776
864	81735
865	81667
866	81729
867	81640
868	81628
869	81486
870	81812
871	81660
872	81420
873	81193
874	81278
875	81178
876	81419
877	81445
878	81423
879	81552
880	81842
881	81699
882	81800
883	81552
884	81751
885	81838
886	81754
887	81708
888	81416
889	81264
890	81533
891	81270
892	80965
893	81005
894	80893
895	80870
896	80954
897	81075
898	81004
899	81125
900	81262
901	81429
902	81457
903	81405
904	81357
905	81202
906	81118
907	81066
908	80869
909	80783
910	80659
911	80496
912	80402
913	80403
914	80378
915	80383
916	80553
917	80797
918	80730
919	80840
920	80988
921	80786
922	80925
923	80912
924	80632
925	80733
926	80623
927	80498
928	80467
929	80505
930	80277
931	80275
932	80128
933	80248
934	80307
935	80235
936	80415
937	80063
938	80162
939	80011
940	80115
941	80118
942	79821
943	79839
944	79979
945	79793
946	79925
947	80045
948	79802
949	80068
950	80034
951	80094
952	79743
953	80144
954	79945
955	80026
956	80111
957	80023
958	80218
959	80098
960	80146
961	80043
962	80115
963	79969
964	80174
965	80273
966	80142
967	80282
968	79867
969	79861
970	79745
971	79533
972	79148
973	79099
974	78849
975	78635
976	78551
977	78896
978	78666
979	78821
980	79216
981	78592
982	78528
983	78623
984	78502
985	78625
986	78907
987	78853
988	79033
989	79155
990	79203
991	79414
992	79468
993	79641
994	79732
995	79836
996	80325
997	80408
998	80517
999	80661
1000	80797
1001	80318
1002	80206
1003	80279
1004	79973
1005	79475
1006	79292
1007	79311
1008	79198
1009	78890
1010	78537
1011	77981
1012	77320
1013	77062
1014	76846
1015	76438
1016	76204
1017	76259
1018	75967
1019	75803
1020	75533
1021	75057
1022	74899
1023	74642
1024	74482
1025	74386
1026	74239
1027	74505
1028	74204
1029	74134
1030	74159
1031	74316
1032	74701
1033	75040
1034	75147
1035	75022
1036	75793
1037	75217
1038	75052
1039	74879
1040	74975
1041	74886
1042	74873
1043	74938
1044	74694
1045	74438
1046	74411
1047	74190
1048	73947
1049	74010
1050	73886
1051	73879
1052	73719
1053	73427
1054	73409
1055	73475
1056	73508
1057	73868
1058	73824
1059	73626
1060	73759
1061	73691
1062	73785
1063	74088
1064	74270
1065	74166
1066	74094
1067	74167
1068	74117
1069	74266
1070	74285
1071	74221
1072	74324
1073	74400
1074	74602
1075	74488
1076	74462
1077	74416
1078	74672
1079	74565
1080	74792
1081	74698
1082	74822
1083	75157
1084	75216
1085	75301
1086	75858
1087	75858
1088	76003
1089	76217
1090	76452
1091	76631
1092	76617
1093	76604
1094	76677
1095	76896
1096	76943
1097	77159
1098	77081
1099	77201
1100	77495
1101	77288
1102	77349
1103	77481
1104	77241
1105	76906
1106	76763
1107	76625
1108	76226
1109	76048
1110	76352
1111	76755
1112	77668
1113	78349
1114	79296
1115	80573
1116	81427
1117	82124
1118	82086
1119	82033
1120	82015
1121	81545
1122	81176
1123	80841
1124	81349
1125	82214
1126	83718
1127	85971
1128	88932
1129	93267
1130	99985
1131	108105
1132	118929
1133	136649
1134	165792
1135	222745
1136	321904
1137	497194
1138	818543
1139	1136898
1140	1287278
1141	1409910
1142	1580858
1143	1579046
1144	1393950
1145	1333758
1146	1263768
1147	1081581
1148	825591
1149	640044
1150	495150
1151	389521
1152	301967
1153	231424
1154	178541
1155	141149
1156	121743
1157	109542
1158	102474
1159	96197
1160	92095
1161	90147
1162	88360
1163	86245
1164	84879
1165	83447
1166	82228
1167	81149
1168	80096
1169	79092
1170	78612
1171	77983
1172	77666
1173	77207
1174	77009
1175	76899
1176	76602
1177	76181
1178	76159
1179	75963
1180	75850
1181	75580
1182	75496
1183	75174
1184	75120
1185	75051
1186	75033
1187	74706
1188	74552
1189	74415
1190	74425
1191	74158
1192	74193
1193	73895
1194	73841
1195	73734
1196	73814
1197	73593
1198	73647
1199	73421
1200	73445
1201	73458
1202	73315
1203	73448
1204	73224
1205	73253
1206	73351
1207	73628
1208	73244
1209	73149
1210	73351
1211	73497
1212	73515
1213	73448
1214	73503
1215	73493
1216	73605
1217	73490
1218	73621
1219	73598
1220	73693
1221	73717
1222	73714
1223	73653
1224	73598
1225	73415
1226	73404
1227	73485
1228	73202
1229	73216
1230	73224
1231	73288
1232	73325
1233	73313
1234	73228
1235	73059
1236	72941
1237	72751
1238	72486
1239	72521
1240	72252
1241	71998
1242	72134
1243	71927
1244	72019
1245	71891
1246	71931
1247	71854
1248	71799
1249	71823
1250	71713
1251	71776
1252	71752
1253	71711
1254	71868
1255	71567
1256	71696
1257	71640
1258	71714
1259	71721
1260	71598
1261	71628
1262	71644
1263	71526
1264	71634
1265	71660
1266	71735
1267	72103
1268	71792
1269	71542
1270	71634
1271	71598
1272	71590
1273	71571
1274	71619
1275	71506
1276	71557
1277	71560
1278	71648
1279	71586
1280	71541
1281	71556
1282	71444
1283	71685
1284	71584
1285	71507
1286	71427
1287	71565
1288	71433
1289	71390
1290	71449
1291	71437
1292	71471
1293	71384
1294	71473
1295	71448
1296	71498
1297	71725
1298	71558
1299	71427
1300	71389
1301	71473
1302	71415
1303	71413
1304	71482
1305	71448
1306	71447
1307	71454
1308	71451
1309	71375
1310	71383
1311	71398
1312	71369
1313	71556
1314	71343
1315	71548
1316	71348
1317	71554
1318	71388
1319	71407
1320	71363
1321	71422
1322	71398
1323	71521
1324	71312
1325	71305
1326	71359
1327	71474
1328	71408
1329	71432
1330	71258
1331	71390
1332	71410
1333	71354
1334	71428
1335	71440
1336	71368
1337	71357
1338	71362
1339	71401
1340	71367
