3619.503	88217
3603.959	76817
3588.547	77225
3573.266	77402
3558.115	77311
3543.091	77371
3528.195	77378
3513.422	77328
3498.773	77567
3484.246	77403
3469.839	77534
3455.55	77612
3441.379	77553
3427.323	77529
3413.382	77531
3399.554	77493
3385.837	77550
3372.231	77681
3358.733	77725
3345.343	77579
3332.06	77780
3318.881	77784
3305.807	77621
3292.835	77630
3279.964	77767
3267.194	77769
3254.522	77642
3241.949	77714
3229.472	77657
3217.091	77823
3204.805	77786
3192.612	77509
3180.511	77826
3168.502	77822
3156.583	77830
3144.754	77984
3133.013	78007
3121.359	77784
3109.792	77764
3098.31	77728
3086.912	77960
3075.598	77988
3064.367	77786
3053.217	77785
3042.149	77918
3031.16	77829
3020.25	77835
3009.419	78114
2998.665	77922
2987.987	77987
2977.385	78051
2966.859	77993
2956.406	77950
2946.027	78055
2935.721	77973
2925.486	78026
2915.322	78133
2905.229	78038
2895.206	77949
2885.251	78110
2875.365	78291
2865.546	78005
2855.794	78114
2846.108	78227
2836.487	78031
2826.932	78010
2817.44	78007
2808.013	78116
2798.648	78205
2789.345	78147
2780.104	78111
2770.924	78377
2761.804	78183
2752.744	78070
2743.744	78313
2734.802	78263
2725.918	78251
2717.092	78246
2708.322	78502
2699.609	78269
2690.952	78278
2682.351	78324
2673.804	78344
2665.311	78563
2656.873	78232
2648.487	78361
2640.154	78223
2631.874	78508
2623.645	78293
2615.468	78351
2607.341	78496
2599.265	78323
2591.239	78450
2583.262	78425
2575.334	78166
2567.454	78362
2559.623	78482
2551.839	78422
2544.102	78570
2536.413	78586
2528.769	78419
2521.172	78551
2513.62	78205
2506.113	78489
2498.651	78540
2491.233	78463
2483.859	78456
2476.528	78641
2469.241	78766
2461.996	78537
2454.794	78575
2447.634	78663
2440.515	78595
2433.438	78470
2426.402	78577
2419.406	78594
2412.451	78513
2405.535	78733
2398.659	78794
2391.822	78597
2385.024	78713
2378.265	78831
2371.543	78683
2364.86	78574
2358.214	78612
2351.606	78875
2345.034	78713
2338.499	78652
2332	78929
2325.538	78918
2319.111	78684
2312.719	78755
2306.363	78789
2300.041	78805
2293.754	78807
2287.501	78943
2281.283	78839
2275.098	78790
2268.946	78853
2262.828	78869
2256.742	78886
2250.689	78888
2244.669	79013
2238.681	78955
2232.724	78967
2226.799	78915
2220.906	78866
2215.043	78974
2209.212	78972
2203.411	79110
2197.641	78951
2191.9	78957
2186.19	79070
2180.509	79128
2174.858	79001
2169.236	78915
2163.643	78954
2158.078	79330
2152.542	79163
2147.035	79038
2141.556	79168
2136.104	79252
2130.68	79225
2125.284	79230
2119.915	79141
2114.573	79252
2109.258	79379
2103.969	79212
2098.707	79295
2093.472	79238
2088.262	79220
2083.078	79332
2077.92	79341
2072.787	79242
2067.68	79392
2062.598	79457
2057.54	79487
2052.508	79227
2047.5	79363
2042.516	79378
2037.556	79510
2032.621	79544
2027.709	79529
2022.821	79392
2017.957	79347
2013.116	79405
2008.298	79468
2003.503	79396
1998.731	79475
1993.982	79532
1989.255	79559
1984.55	79490
1979.868	79473
1975.208	79541
1970.569	79652
1965.953	79620
1961.358	79570
1956.784	79658
1952.232	79761
1947.701	79652
1943.19	79667
1938.701	79769
1934.232	79672
1929.784	79727
1925.356	79673
1920.949	79653
1916.562	79648
1912.194	79606
1907.847	79668
1903.519	79562
1899.211	79595
1894.922	79751
1890.653	79711
1886.403	79611
1882.172	79824
1877.959	79885
1873.766	79777
1869.591	79800
1865.435	79750
1861.298	79595
1857.178	80016
1853.077	79795
1848.994	79817
1844.929	79806
1840.882	79716
1836.852	79866
1832.84	79724
1828.845	79676
1824.868	79728
1820.908	79748
1816.966	79811
1813.04	79754
1809.131	79587
1805.239	79991
1801.364	79755
1797.506	79878
1793.663	79809
1789.838	79944
1786.028	79861
1782.235	79948
1778.458	79946
1774.697	79924
1770.951	80020
1767.222	79781
1763.508	79805
1759.809	80154
1756.127	79975
1752.459	79902
1748.807	80109
1745.17	79908
1741.548	79790
1737.941	80044
1734.349	79876
1730.772	79986
1727.21	79892
1723.662	79802
1720.129	80002
1716.61	79944
1713.105	80295
1709.615	79961
1706.139	79995
1702.677	79889
1699.23	80078
1695.796	80019
1692.376	80137
1688.969	80333
1685.577	80185
1682.198	80098
1678.832	80090
1675.48	80121
1672.142	80181
1668.816	80199
1665.504	80348
1662.205	80257
1658.919	80240
1655.646	80141
1652.386	80206
1649.138	80361
1645.904	80419
1642.682	80244
1639.473	80177
1636.276	80302
1633.091	80221
1629.919	80523
1626.76	80336
1623.612	80370
1620.477	80481
1617.353	80468
1614.242	80551
1611.143	80308
1608.055	80399
1604.98	80677
1601.916	80521
1598.864	80695
1595.823	80501
1592.794	80580
1589.777	80548
1586.77	80768
1583.776	80658
1580.792	80817
1577.82	80702
1574.859	80927
1571.909	81092
1568.97	81003
1566.042	81057
1563.124	81231
1560.218	81565
1557.323	81385
1554.438	81484
1551.564	81497
1548.7	81599
1545.847	81678
1543.005	81501
1540.173	81544
1537.351	81593
1534.54	81350
1531.739	81423
1528.948	81478
1526.167	81579
1523.397	81462
1520.636	81755
1517.885	81867
1515.145	82092
1512.414	82463
1509.693	82644
1506.982	83087
1504.28	83183
1501.589	83776
1498.906	83975
1496.234	83960
1493.571	83896
1490.917	83702
1488.273	83607
1485.638	83370
1483.012	82988
1480.396	82742
1477.789	82528
1475.191	82327
1472.602	81995
1470.023	82126
1467.452	81707
1464.89	81709
1462.338	81604
1459.794	81760
1457.259	81716
1454.732	81552
1452.215	81451
1449.706	81512
1447.206	81564
1444.714	81616
1442.231	81587
1439.757	81457
1437.291	81606
1434.833	81529
1432.384	81544
1429.943	81555
1427.511	81303
1425.086	81351
1422.67	81393
1420.262	81513
1417.863	81362
1415.471	81454
1413.087	81323
1410.712	81241
1408.344	81359
1405.985	81226
1403.633	81330
1401.289	81345
1398.953	81332
1396.625	81312
1394.304	81374
1391.991	81428
1389.686	81303
1387.388	81369
1385.098	81185
1382.816	81253
1380.541	81433
1378.273	81262
1376.013	81431
1373.761	81347
1371.515	82074
1369.277	81397
1367.047	81306
1364.823	81257
1362.607	81315
1360.398	81442
1358.196	81324
1356.001	81205
1353.814	81226
1351.633	81301
1349.46	81207
1347.293	81279
1345.133	81222
1342.98	81368
1340.835	81494
1338.696	81230
1336.563	81345
1334.438	81347
1332.319	81257
1330.207	81258
1328.102	81380
1326.003	81252
1323.911	81452
1321.826	81297
1319.747	81159
1317.675	81260
1315.609	81266
1313.549	81625
1311.497	81404
1309.45	81475
1307.41	81448
1305.376	81187
1303.349	81270
1301.327	81460
1299.312	81351
1297.304	81278
1295.301	81242
1293.305	81379
1291.315	81505
1289.331	81369
1287.353	81455
1285.381	81292
1283.415	81519
1281.455	81397
1279.501	81540
1277.553	81575
1275.611	81504
1273.675	81615
1271.745	81728
1269.82	81808
1267.902	81666
1265.989	81682
1264.082	81604
1262.18	81622
1260.285	81932
1258.395	81725
1256.511	81871
1254.632	82037
1252.759	81832
1250.891	81973
1249.03	82137
1247.173	82396
1245.322	82329
1243.477	82349
1241.637	82255
1239.803	82464
1237.974	82353
1236.15	82291
1234.332	82421
1232.519	82000
1230.711	82238
1228.909	82139
1227.112	82116
1225.32	81992
1223.533	82055
1221.752	81981
1219.976	81814
1218.205	81937
1216.439	81924
1214.678	81872
1212.922	81903
1211.171	81832
1209.426	81800
1207.685	81932
1205.95	81868
1204.219	81800
1202.493	81750
1200.773	81468
1199.057	81811
1197.346	81863
1195.64	82160
1193.939	81805
1192.243	81733
1190.551	81690
1188.864	81888
1187.182	81853
1185.505	81791
1183.833	81891
1182.165	81755
1180.502	81764
1178.844	81832
1177.19	81716
1175.541	81892
1173.896	81858
1172.256	81926
1170.621	81684
1168.99	81876
1167.364	82065
1165.743	81896
1164.125	81943
1162.513	81943
1160.904	81930
1159.301	82030
1157.701	81782
1156.106	81977
1154.516	82041
1152.929	81900
1151.347	81906
1149.77	81917
1148.197	81735
1146.628	81960
1145.063	82008
1143.503	81875
1141.947	81814
1140.395	82107
1138.847	81864
1137.304	82131
1135.764	81980
1134.229	81995
1132.698	81980
1131.171	82019
1129.649	82008
1128.13	82179
1126.615	82042
1125.105	82022
1123.598	82132
1122.096	82067
1120.597	81905
1119.103	82142
1117.612	82324
1116.126	82205
1114.643	82137
1113.165	82253
1111.69	82266
1110.219	82224
1108.752	82374
1107.289	82178
1105.83	82277
1104.375	82255
1102.923	82354
1101.476	82253
1100.032	82349
1098.592	82370
1097.155	82582
1095.723	82401
1094.294	82445
1092.869	82375
1091.447	82523
1090.029	82588
1088.615	82628
1087.205	82621
1085.798	82618
1084.395	82719
1082.995	82656
1081.6	82845
1080.207	82734
1078.819	82604
1077.433	82712
1076.052	82943
1074.674	82789
1073.299	83127
1071.928	82941
1070.561	82934
1069.197	83055
1067.836	83246
1066.479	83403
1065.125	83494
1063.775	83567
1062.428	83902
1061.085	84090
1059.745	84612
1058.408	84402
1057.075	84635
1055.745	84486
1054.418	84549
1053.095	84542
1051.775	84299
1050.458	84340
1049.145	84093
1047.835	83965
1046.528	83573
1045.225	83506
1043.924	83603
1042.627	83354
1041.334	83375
1040.043	83285
1038.755	83263
1037.471	83308
1036.19	83329
1034.912	83518
1033.637	83366
1032.366	83545
1031.097	83624
1029.832	83881
1028.57	84013
1027.31	84205
1026.054	84187
1024.801	84220
1023.551	84017
1022.304	84128
1021.06	84052
1019.819	83721
1018.582	83428
1017.347	83336
1016.115	83368
1014.886	82945
1013.66	83069
1012.437	82799
1011.217	82765
1010	82682
1008.786	82596
1007.574	82535
1006.366	82562
1005.161	82383
1003.958	82412
1002.758	82299
1001.561	82357
1000.367	82395
999.176	82501
997.988	82459
996.803	82542
995.62	82413
994.44	82287
993.263	82471
992.089	82388
990.917	82567
989.748	82191
988.582	82421
987.419	82321
986.259	82251
985.101	82389
983.946	82252
982.793	82272
981.644	82071
980.497	82063
979.352	82316
978.211	82270
977.072	82180
975.935	82205
974.802	82187
973.671	82198
972.542	82236
971.416	82233
970.293	82275
969.172	82137
968.054	82237
966.939	82180
965.826	82115
964.716	82213
963.608	82023
962.503	82280
961.4	82176
960.3	82230
959.202	82431
958.107	82089
957.014	82012
955.924	81873
954.836	81987
953.751	82175
952.668	82182
951.588	82005
950.51	82125
949.435	82077
948.362	82057
947.291	82095
946.223	82275
945.157	82091
944.094	82095
943.033	82124
941.974	85345
940.918	82353
939.864	82487
938.813	82222
937.764	82311
936.717	81990
935.672	82248
934.63	82254
933.59	82420
932.553	82311
931.518	82479
930.485	82424
929.454	82295
928.426	82626
927.4	82696
926.376	82694
925.354	83215
924.335	83518
923.318	84001
922.303	84762
921.291	85396
920.28	86063
919.272	86883
918.266	87586
917.262	88297
916.261	88385
915.261	88363
914.264	87797
913.269	87334
912.276	86214
911.286	85617
910.297	84556
909.311	84083
908.326	83510
907.344	83086
906.364	82975
905.386	82733
904.411	82515
903.437	82425
902.465	82315
901.496	82275
900.528	82053
899.563	82035
898.6	82015
897.638	81973
896.679	82016
895.722	82001
894.767	81888
893.814	81784
892.863	81892
891.914	81871
890.967	81871
890.022	81800
889.079	81858
888.138	81668
887.199	82966
886.262	81671
885.327	81715
884.394	81746
883.463	81709
882.534	81662
881.607	81617
880.681	81902
879.758	81829
878.837	81641
877.917	81679
877	81676
876.084	81656
875.17	81806
874.259	81706
873.349	81726
872.441	81759
871.535	81678
870.63	81754
869.728	81525
868.828	81592
867.929	81488
867.032	81422
866.137	81535
865.244	81751
864.353	81466
863.464	81431
862.576	81614
861.69	81619
860.806	81502
859.924	81469
859.044	81609
858.165	81507
857.289	81468
856.414	81621
855.541	81424
854.669	81353
853.8	81549
852.932	81603
852.066	81632
851.201	81546
850.339	81321
849.478	81612
848.619	81447
847.762	81453
846.906	81466
846.052	81426
845.2	81551
844.35	81452
843.501	81377
842.654	81596
841.809	81613
840.965	81514
840.123	81401
839.283	81454
838.444	81573
837.607	81452
836.772	81413
835.938	81413
835.107	81505
834.276	81410
833.448	81361
832.621	81441
831.795	81416
830.972	81420
830.15	81497
829.329	81503
828.51	81473
827.693	81477
826.878	81395
826.064	81431
825.251	81284
824.44	81398
823.631	81299
822.824	81375
822.018	81429
821.213	81428
820.41	81526
819.609	81519
818.809	81417
818.011	81450
817.214	81416
816.419	81494
815.626	81504
814.834	81551
814.043	81599
813.254	81580
812.467	81652
811.681	81342
810.897	81188
810.114	81528
809.333	81239
808.553	81336
807.774	81114
806.998	81257
806.222	80997
805.448	80901
804.676	80893
803.905	81109
803.136	81087
802.368	81000
801.601	81239
800.836	81152
800.073	81121
799.311	81207
798.55	81162
797.791	81138
797.033	81125
796.277	81228
795.522	81187
794.769	81191
794.017	81192
793.266	81354
792.517	81405
791.769	81237
791.023	81254
790.278	81056
789.534	81080
788.792	81191
788.051	81215
787.312	81098
786.574	80855
785.837	80911
785.102	80948
784.368	80854
783.636	80768
782.905	80893
782.175	80722
781.446	80934
780.719	80822
779.994	80961
779.269	81063
778.546	81001
777.825	80780
777.104	81028
776.385	80779
775.668	80785
774.951	80829
774.236	80841
773.523	80974
772.81	80883
772.099	80850
771.39	80863
770.681	80871
769.974	81024
769.268	81001
768.564	81158
767.86	81115
767.158	81199
766.458	81238
765.758	81115
765.06	81078
764.363	81076
763.668	81072
762.973	81092
762.28	81177
761.588	81051
760.898	80894
760.208	80767
759.52	80834
758.834	80710
758.148	80974
757.464	80968
756.781	80963
756.099	81133
755.418	81318
754.739	80997
754.06	81186
753.383	80982
752.708	81249
752.033	81318
751.36	81110
750.687	81015
750.017	80934
749.347	80913
748.678	80725
748.011	80749
747.345	80635
746.68	80566
746.016	80383
745.353	80437
744.692	80476
744.032	80437
743.372	80567
742.714	80729
742.058	80825
741.402	80772
740.748	80756
740.094	80760
739.442	80687
738.791	80563
738.141	80644
737.493	80562
736.845	80445
736.199	80365
735.553	80272
734.909	79981
734.266	80101
733.624	79896
732.983	79970
732.344	79904
731.705	79958
731.068	80182
730.431	80179
729.796	80182
729.162	80319
728.529	80186
727.897	80318
727.266	80205
726.636	80316
726.008	80196
725.38	80195
724.753	80226
724.128	80096
723.504	79860
722.88	79746
722.258	79958
721.637	79729
721.017	79866
720.398	79933
719.78	79903
719.163	80171
718.548	79904
717.933	80003
717.319	79785
716.706	79848
716.095	79667
715.484	79537
714.875	79371
714.266	79623
713.659	79609
713.052	79396
712.447	79435
711.843	79424
711.239	79489
710.637	79739
710.036	79499
709.435	79332
708.836	79636
708.238	79526
707.641	79630
707.044	79639
706.449	79528
705.855	79708
705.262	79622
704.669	79647
704.078	79646
703.488	79563
702.899	79539
702.31	79564
701.723	79613
701.137	79513
700.551	79534
699.967	79342
699.384	79443
698.801	79244
698.22	79041
697.639	78709
697.06	78577
696.481	78436
695.904	78294
695.327	78390
694.751	78530
694.177	78258
693.603	78329
693.03	78847
692.458	78258
691.887	78210
691.317	78086
690.748	78054
690.18	78060
689.613	78306
689.047	78524
688.481	78500
687.917	78609
687.353	78707
686.791	78889
686.229	78879
685.669	78897
685.109	78930
684.55	79131
683.992	79443
683.435	79524
682.879	79760
682.323	79694
681.769	79903
681.216	79556
680.663	79232
680.111	79407
679.561	79163
679.011	78623
678.462	78483
677.914	78657
677.366	78299
676.82	77951
676.275	77777
675.73	77315
675.186	76761
674.644	76363
674.102	76178
673.56	75871
673.02	75716
672.481	75828
671.942	75474
671.405	75362
670.868	75044
670.332	74595
669.797	74395
669.263	74328
668.73	73979
668.197	73907
667.665	73822
667.135	74067
666.605	73887
666.076	73837
665.547	73668
665.02	73898
664.493	74190
663.967	74221
663.442	74264
662.918	74517
662.395	75203
661.873	74699
661.351	74746
660.83	74633
660.31	74718
659.791	74815
659.273	74827
658.755	74952
658.238	74722
657.722	74338
657.207	74128
656.693	73819
656.18	73883
655.667	73800
655.155	73566
654.644	73638
654.133	73490
653.624	73334
653.115	73185
652.607	73197
652.1	73373
651.594	73704
651.088	73731
650.583	73588
650.079	73503
649.576	73604
649.074	73750
648.572	74076
648.071	74088
647.571	74049
647.072	74042
646.573	74078
646.075	73964
645.578	74165
645.082	73901
644.587	74188
644.092	74210
643.598	74485
643.105	74510
642.612	74353
642.12	74328
641.629	74391
641.139	74343
640.65	74424
640.161	74497
639.673	74579
639.186	74630
638.699	74652
638.213	74936
637.728	74925
637.244	75120
636.761	75353
636.278	75273
635.796	75419
635.314	75600
634.834	75837
634.354	75891
633.875	75854
633.396	75965
632.918	76111
632.441	76253
631.965	76310
631.49	76555
631.015	76869
630.541	77107
630.067	76972
629.594	77198
629.122	77301
628.651	77175
628.18	76833
627.711	76504
627.241	76111
626.773	75763
626.305	75719
625.838	75786
625.372	76077
624.906	76799
624.441	77123
623.977	78088
623.513	79212
623.05	80119
622.588	80916
622.126	81114
621.665	81209
621.205	81215
620.746	80741
620.287	80161
619.829	79821
619.371	80448
618.914	80816
618.458	81933
618.003	83758
617.548	86168
617.094	89843
616.64	95742
616.187	102670
615.735	112787
615.284	127402
614.833	150933
614.383	200402
613.933	284659
613.485	434187
613.036	727873
612.589	1043755
612.142	1175294
611.696	1289555
611.25	1436639
610.805	1407419
610.361	1201967
609.917	1126093
609.474	1069299
609.032	890271
608.59	666845
608.149	515964
607.709	411069
607.269	323326
606.83	248133
606.391	193948
605.954	155591
605.516	127710
605.08	111945
604.644	102135
604.208	96688
603.774	91598
603.339	88596
602.906	86982
602.473	85682
602.041	84140
601.609	82775
601.178	81767
600.748	80709
600.318	79874
599.889	78876
599.46	78093
599.032	77770
598.605	77301
598.178	76923
597.752	76679
597.327	76364
596.902	76259
596.478	76050
596.054	75671
595.631	75468
595.208	75461
594.787	75190
594.365	75037
593.945	75084
593.524	74814
593.105	74651
592.686	74442
592.268	74427
591.85	74361
591.433	74050
591.016	74020
590.6	74119
590.185	73874
589.77	73809
589.356	73696
588.942	73608
588.529	73493
588.117	73582
587.705	73318
587.294	73403
586.883	73225
586.473	73332
586.063	73070
585.654	73187
585.246	73150
584.838	73097
584.43	73049
584.024	73048
583.618	73470
583.212	73104
582.807	72860
582.402	73107
581.998	73040
581.595	73091
581.192	73095
580.79	73106
580.388	73229
579.987	73056
579.587	73137
579.187	73191
578.787	73076
578.388	73209
577.99	73128
577.592	73167
577.195	72996
576.798	73084
576.402	72897
576.006	72758
575.611	72816
575.216	72799
574.822	72699
574.429	72763
574.036	72770
573.644	72741
573.252	72715
572.86	72494
572.469	72549
572.079	72327
571.689	72296
571.3	72095
570.912	72167
570.523	72044
570.136	71884
569.749	71850
569.362	71865
568.976	71890
568.591	71772
568.206	71853
567.821	71590
567.437	71689
567.054	71787
566.671	71632
566.288	71676
565.906	71675
565.525	71644
565.144	71662
564.764	71541
564.384	71498
564.005	71549
563.626	71575
563.248	71642
562.87	71543
562.492	71648
562.116	71584
561.739	71423
561.364	71698
560.988	71524
560.613	71628
560.239	71992
559.865	71661
559.492	71512
559.119	71482
558.747	71453
558.375	71393
558.004	71481
557.633	71509
557.263	71486
556.893	71428
556.524	71497
556.155	71619
555.787	71536
555.419	71486
555.051	71424
554.684	71464
554.318	71653
553.952	71585
553.587	71492
553.222	71466
552.857	71416
552.493	71472
552.13	71371
551.767	71375
551.404	71380
551.042	71442
550.68	71419
550.319	71385
549.959	71430
549.598	71402
549.239	71693
548.879	71421
548.521	71364
548.162	71313
547.804	71316
547.447	71368
547.09	71341
546.734	71428
546.378	71461
546.022	71317
545.667	71331
545.313	71298
544.958	71363
544.605	71365
544.251	71401
543.899	71456
543.546	71422
543.195	71371
542.843	71477
542.492	71289
542.142	71317
541.792	71320
541.442	71424
541.093	71293
540.744	71288
540.396	71302
540.048	71390
539.701	71395
539.354	71279
539.008	71457
538.662	71403
538.316	71451
537.971	71267
537.626	71310
537.282	71313
536.938	71422
536.595	71339
536.252	71271
535.91	71317
535.568	71326
535.226	71201
534.885	71268
534.544	71348
534.204	71303
