3619.503	143493
3603.959	132932
3588.547	133135
3573.266	133570
3558.115	133548
3543.091	133586
3528.195	133840
3513.422	133431
3498.773	133668
3484.246	133299
3469.839	133679
3455.55	133983
3441.379	134019
3427.323	133710
3413.382	133738
3399.554	133751
3385.837	133938
3372.231	134065
3358.733	133862
3345.343	134030
3332.06	134459
3318.881	134457
3305.807	134149
3292.835	134227
3279.964	134185
3267.194	134575
3254.522	134434
3241.949	134917
3229.472	134907
3217.091	134939
3204.805	135263
3192.612	134845
3180.511	134850
3168.502	134482
3156.583	134996
3144.754	135817
3133.013	135525
3121.359	135361
3109.792	135741
3098.31	135850
3086.912	135575
3075.598	136134
3064.367	135667
3053.217	135823
3042.149	136329
3031.16	136128
3020.25	136017
3009.419	136641
2998.665	136374
2987.987	136346
2977.385	136699
2966.859	137021
2956.406	136863
2946.027	137118
2935.721	136972
2925.486	137517
2915.322	137439
2905.229	137718
2895.206	137242
2885.251	137594
2875.365	137761
2865.546	137648
2855.794	137591
2846.108	137969
2836.487	137802
2826.932	138201
2817.44	137954
2808.013	138279
2798.648	138282
2789.345	138501
2780.104	138368
2770.924	138404
2761.804	138684
2752.744	138752
2743.744	139270
2734.802	139031
2725.918	138551
2717.092	139113
2708.322	139100
2699.609	138842
2690.952	139251
2682.351	139577
2673.804	139458
2665.311	139636
2656.873	139875
2648.487	139588
2640.154	139649
2631.874	140021
2623.645	139743
2615.468	140179
2607.341	140234
2599.265	140187
2591.239	140477
2583.262	140986
2575.334	140184
2567.454	140458
2559.623	140532
2551.839	140771
2544.102	140925
2536.413	140913
2528.769	141333
2521.172	141037
2513.62	140950
2506.113	141112
2498.651	141615
2491.233	141353
2483.859	141322
2476.528	141460
2469.241	141570
2461.996	141648
2454.794	141566
2447.634	141828
2440.515	141912
2433.438	141667
2426.402	142292
2419.406	142164
2412.451	142457
2405.535	142706
2398.659	142744
2391.822	142310
2385.024	142621
2378.265	142595
2371.543	143107
2364.86	142621
2358.214	142784
2351.606	142715
2345.034	142899
2338.499	143246
2332	143223
2325.538	143079
2319.111	143429
2312.719	143455
2306.363	143556
2300.041	143502
2293.754	143746
2287.501	143980
2281.283	143976
2275.098	144438
2268.946	143982
2262.828	144223
2256.742	144369
2250.689	144560
2244.669	144134
2238.681	144309
2232.724	144313
2226.799	144223
2220.906	144874
2215.043	144673
2209.212	144837
2203.411	144877
2197.641	145091
2191.9	145197
2186.19	145320
2180.509	145404
2174.858	145415
2169.236	145484
2163.643	145435
2158.078	145562
2152.542	145731
2147.035	145976
2141.556	146050
2136.104	146244
2130.68	145951
2125.284	146193
2119.915	146007
2114.573	146095
2109.258	146304
2103.969	146402
2098.707	146674
2093.472	146572
2088.262	146490
2083.078	147022
2077.92	146676
2072.787	146695
2067.68	146987
2062.598	147383
2057.54	147386
2052.508	146884
2047.5	147162
2042.516	147290
2037.556	147213
2032.621	147135
2027.709	147401
2022.821	147351
2017.957	147542
2013.116	148056
2008.298	147680
2003.503	147743
1998.731	147768
1993.982	148049
1989.255	147810
1984.55	148016
1979.868	148035
1975.208	148036
1970.569	148270
1965.953	148018
1961.358	148292
1956.784	148279
1952.232	148415
1947.701	148273
1943.19	148571
1938.701	148678
1934.232	148898
1929.784	148575
1925.356	148777
1920.949	148781
1916.562	149197
1912.194	148745
1907.847	148806
1903.519	149174
1899.211	149224
1894.922	149225
1890.653	149131
1886.403	149385
1882.172	149308
1877.959	149541
1873.766	150006
1869.591	149397
1865.435	149880
1861.298	149676
1857.178	149496
1853.077	149723
1848.994	149223
1844.929	149482
1840.882	149956
1836.852	149804
1832.84	150119
1828.845	150076
1824.868	150340
1820.908	150152
1816.966	150255
1813.04	150021
1809.131	149887
1805.239	150027
1801.364	150399
1797.506	150206
1793.663	150382
1789.838	150457
1786.028	150801
1782.235	150494
1778.458	150791
1774.697	150663
1770.951	150431
1767.222	150548
1763.508	150992
1759.809	151191
1756.127	151101
1752.459	151121
1748.807	151128
1745.17	150794
1741.548	151247
1737.941	151486
1734.349	151071
1730.772	150841
1727.21	150985
1723.662	151426
1720.129	151172
1716.61	151257
1713.105	151300
1709.615	151732
1706.139	151248
1702.677	151189
1699.23	151103
1695.796	151249
1692.376	151952
1688.969	151562
1685.577	151763
1682.198	151651
1678.832	151505
1675.48	151947
1672.142	151701
1668.816	151722
1665.504	151927
1662.205	152068
1658.919	152051
1655.646	152138
1652.386	151830
1649.138	152005
1645.904	152540
1642.682	152203
1639.473	152218
1636.276	152113
1633.091	151953
1629.919	152206
1626.76	152502
1623.612	152392
1620.477	152449
1617.353	152752
1614.242	152877
1611.143	152285
1608.055	152461
1604.98	153182
1601.916	152816
1598.864	153339
1595.823	152903
1592.794	153269
1589.777	153221
1586.77	152794
1583.776	153395
1580.792	153254
1577.82	153080
1574.859	153381
1571.909	153770
1568.97	154121
1566.042	153704
1563.124	154137
1560.218	154177
1557.323	154192
1554.438	154224
1551.564	153913
1548.7	154340
1545.847	154718
1543.005	154167
1540.173	153987
1537.351	154230
1534.54	154475
1531.739	154326
1528.948	154697
1526.167	154753
1523.397	154905
1520.636	154789
1517.885	154953
1515.145	154907
1512.414	155925
1509.693	155779
1506.982	155958
1504.28	156589
1501.589	156825
1498.906	157215
1496.234	157604
1493.571	157113
1490.917	157004
1488.273	156776
1485.638	156281
1483.012	156359
1480.396	156172
1477.789	155807
1475.191	156005
1472.602	155485
1470.023	155523
1467.452	155232
1464.89	155470
1462.338	155094
1459.794	155441
1457.259	155214
1454.732	155425
1452.215	155190
1449.706	155344
1447.206	155462
1444.714	155314
1442.231	155282
1439.757	154815
1437.291	155388
1434.833	155141
1432.384	155148
1429.943	155227
1427.511	154883
1425.086	155094
1422.67	155146
1420.262	155270
1417.863	155360
1415.471	155482
1413.087	155400
1410.712	155404
1408.344	155265
1405.985	155339
1403.633	155041
1401.289	155297
1398.953	155716
1396.625	155273
1394.304	155794
1391.991	154963
1389.686	155011
1387.388	155267
1385.098	155132
1382.816	155356
1380.541	155161
1378.273	155487
1376.013	155654
1373.761	155005
1371.515	155981
1369.277	155526
1367.047	155366
1364.823	155539
1362.607	155780
1360.398	155792
1358.196	155231
1356.001	155403
1353.814	155265
1351.633	155726
1349.46	155248
1347.293	155502
1345.133	155315
1342.98	155306
1340.835	155132
1338.696	155407
1336.563	155660
1334.438	155698
1332.319	155525
1330.207	155316
1328.102	155076
1326.003	155557
1323.911	155642
1321.826	155457
1319.747	155556
1317.675	155277
1315.609	155651
1313.549	155562
1311.497	155398
1309.45	155781
1307.41	155378
1305.376	155611
1303.349	155670
1301.327	155627
1299.312	155473
1297.304	155552
1295.301	154999
1293.305	155339
1291.315	155287
1289.331	155646
1287.353	155561
1285.381	155806
1283.415	155761
1281.455	155359
1279.501	155483
1277.553	155502
1275.611	155243
1273.675	155422
1271.745	155676
1269.82	155421
1267.902	155534
1265.989	155380
1264.082	155430
1262.18	155580
1260.285	155662
1258.395	155591
1256.511	155750
1254.632	155851
1252.759	155804
1250.891	155829
1249.03	155667
1247.173	156043
1245.322	155828
1243.477	155889
1241.637	156037
1239.803	156272
1237.974	155991
1236.15	155699
1234.332	156011
1232.519	155462
1230.711	155752
1228.909	155745
1227.112	155982
1225.32	155257
1223.533	155545
1221.752	155022
1219.976	155105
1218.205	155512
1216.439	155193
1214.678	155141
1212.922	155205
1211.171	154943
1209.426	155115
1207.685	154812
1205.95	154599
1204.219	154494
1202.493	154634
1200.773	154049
1199.057	154411
1197.346	154709
1195.64	154975
1193.939	154594
1192.243	154485
1190.551	154594
1188.864	154711
1187.182	154671
1185.505	154603
1183.833	154546
1182.165	154340
1180.502	154443
1178.844	154704
1177.19	154403
1175.541	154273
1173.896	154366
1172.256	154358
1170.621	154470
1168.99	154347
1167.364	154488
1165.743	154104
1164.125	154535
1162.513	154261
1160.904	154262
1159.301	153887
1157.701	154067
1156.106	154167
1154.516	154065
1152.929	153791
1151.347	153842
1149.77	154119
1148.197	154091
1146.628	153829
1145.063	154204
1143.503	153517
1141.947	153281
1140.395	154075
1138.847	153350
1137.304	153436
1135.764	153462
1134.229	153309
1132.698	153689
1131.171	153388
1129.649	153410
1128.13	152945
1126.615	153016
1125.105	153249
1123.598	152888
1122.096	153241
1120.597	153102
1119.103	152948
1117.612	153277
1116.126	153140
1114.643	153589
1113.165	153402
1111.69	153162
1110.219	152870
1108.752	153092
1107.289	152588
1105.83	152896
1104.375	152788
1102.923	152925
1101.476	152792
1100.032	152729
1098.592	152265
1097.155	152731
1095.723	152803
1094.294	152110
1092.869	152304
1091.447	152803
1090.029	152479
1088.615	152803
1087.205	152703
1085.798	152501
1084.395	152206
1082.995	152096
1081.6	152447
1080.207	152428
1078.819	152205
1077.433	152306
1076.052	152607
1074.674	152411
1073.299	152305
1071.928	152227
1070.561	152153
1069.197	152329
1067.836	152387
1066.479	152456
1065.125	152244
1063.775	152197
1062.428	153031
1061.085	152897
1059.745	152935
1058.408	152963
1057.075	153003
1055.745	153017
1054.418	152588
1053.095	152763
1051.775	152503
1050.458	152718
1049.145	152202
1047.835	151721
1046.528	151042
1045.225	151332
1043.924	151368
1042.627	151119
1041.334	151118
1040.043	151061
1038.755	150921
1037.471	150565
1036.19	150812
1034.912	150952
1033.637	150819
1032.366	150781
1031.097	150881
1029.832	150782
1028.57	150916
1027.31	151175
1026.054	151079
1024.801	151064
1023.551	150788
1022.304	150852
1021.06	150423
1019.819	150291
1018.582	150157
1017.347	149740
1016.115	149626
1014.886	149320
1013.66	148644
1012.437	148985
1011.217	148777
1010	148488
1008.786	149049
1007.574	148290
1006.366	148327
1005.161	148323
1003.958	148050
1002.758	147819
1001.561	147685
1000.367	147701
999.176	147659
997.988	147570
996.803	147471
995.62	147450
994.44	147619
993.263	147281
992.089	147124
990.917	146882
989.748	146410
988.582	146845
987.419	146894
986.259	146787
985.101	146259
983.946	146144
982.793	146265
981.644	146305
980.497	145855
979.352	146069
978.211	146105
977.072	145816
975.935	145544
974.802	145431
973.671	145297
972.542	145128
971.416	145416
970.293	145497
969.172	145018
968.054	145236
966.939	144991
965.826	144714
964.716	144874
963.608	144768
962.503	144593
961.4	144593
960.3	144247
959.202	144046
958.107	144082
957.014	144211
955.924	143756
954.836	143871
953.751	143919
952.668	143673
951.588	143441
950.51	143636
949.435	143503
948.362	143175
947.291	143114
946.223	142867
945.157	142884
944.094	143103
943.033	142471
941.974	145455
940.918	142783
939.864	142719
938.813	142753
937.764	142346
936.717	142373
935.672	141993
934.63	142220
933.59	142193
932.553	141920
931.518	141777
930.485	142024
929.454	141599
928.426	141433
927.4	141524
926.376	141608
925.354	142046
924.335	142297
923.318	142188
922.303	143056
921.291	143679
920.28	143776
919.272	144791
918.266	145467
917.262	145307
916.261	145900
915.261	145822
914.264	145110
913.269	144368
912.276	143387
911.286	142736
910.297	141761
909.311	140783
908.326	140708
907.344	140059
906.364	139844
905.386	139732
904.411	138697
903.437	139245
902.465	138669
901.496	138585
900.528	138313
899.563	138678
898.6	138337
897.638	137959
896.679	138229
895.722	137825
894.767	137727
893.814	137710
892.863	137471
891.914	137379
890.967	136966
890.022	136876
889.079	136809
888.138	136749
887.199	138394
886.262	137011
885.327	136683
884.394	136297
883.463	136522
882.534	136548
881.607	136243
880.681	136235
879.758	135985
878.837	135781
877.917	135778
877	135534
876.084	135325
875.17	135543
874.259	135661
873.349	135105
872.441	135294
871.535	135089
870.63	135034
869.728	134571
868.828	134646
867.929	134252
867.032	134476
866.137	134143
865.244	134111
864.353	133899
863.464	133848
862.576	134000
861.69	133824
860.806	133603
859.924	133611
859.044	133804
858.165	133494
857.289	133476
856.414	133325
855.541	132892
854.669	132778
853.8	132971
852.932	132844
852.066	132893
851.201	132756
850.339	132269
849.478	132618
848.619	132222
847.762	132150
846.906	131804
846.052	131764
845.2	131992
844.35	131647
843.501	131937
842.654	132098
841.809	132548
840.965	132251
840.123	131780
839.283	132280
838.444	132179
837.607	131576
836.772	130597
835.938	130551
835.107	130967
834.276	130281
833.448	130159
832.621	130565
831.795	130093
830.972	129959
830.15	129756
829.329	129578
828.51	129567
827.693	129670
826.878	129411
826.064	129413
825.251	129173
824.44	129129
823.631	129138
822.824	129097
822.018	129013
821.213	128944
820.41	128215
819.609	128676
818.809	128172
818.011	128829
817.214	128545
816.419	128438
815.626	128741
814.834	128763
814.043	128790
813.254	128168
812.467	127880
811.681	127706
810.897	127560
810.114	127613
809.333	127206
808.553	127400
807.774	126758
806.998	126429
806.222	126220
805.448	125976
804.676	125761
803.905	125578
803.136	125828
802.368	125531
801.601	125822
800.836	126179
800.073	125463
799.311	125761
798.55	125591
797.791	125277
797.033	125392
796.277	125377
795.522	125326
794.769	125181
794.017	125484
793.266	125369
792.517	125495
791.769	124920
791.023	124650
790.278	124689
789.534	124447
788.792	124176
788.051	123682
787.312	123576
786.574	123256
785.837	123166
785.102	122663
784.368	123076
783.636	122734
782.905	122755
782.175	122763
781.446	122622
780.719	122504
779.994	122571
779.269	122661
778.546	122395
777.825	122470
777.104	121931
776.385	122010
775.668	122091
774.951	121768
774.236	121547
773.523	121641
772.81	121598
772.099	121466
771.39	121390
770.681	121418
769.974	121261
769.268	121306
768.564	121478
767.86	121765
767.158	121802
766.458	121809
765.758	121469
765.06	121250
764.363	121349
763.668	120987
762.973	120997
762.28	120812
761.588	120648
760.898	120148
760.208	119928
759.52	119799
758.834	119382
758.148	119913
757.464	119935
756.781	120085
756.099	120531
755.418	120231
754.739	120265
754.06	120411
753.383	120268
752.708	120265
752.033	120253
751.36	120240
750.687	120069
750.017	119248
749.347	118849
748.678	118659
748.011	118125
747.345	117790
746.68	117972
746.016	117593
745.353	117485
744.692	117382
744.032	117396
743.372	117653
742.714	117771
742.058	118266
741.402	118446
740.748	118014
740.094	117923
739.442	117474
738.791	117292
738.141	116914
737.493	116943
736.845	116449
736.199	116295
735.553	115431
734.909	114815
734.266	114789
733.624	114489
732.983	113958
732.344	114256
731.705	114205
731.068	114663
730.431	114540
729.796	114651
729.162	114787
728.529	114441
727.897	114157
727.266	113961
726.636	113680
726.008	113548
725.38	113301
724.753	113158
724.128	112905
723.504	112607
722.88	112582
722.258	112286
721.637	112153
721.017	111938
720.398	111997
719.78	111980
719.163	112330
718.548	111989
717.933	112168
717.319	111690
716.706	111829
716.095	111616
715.484	111173
714.875	111111
714.266	110455
713.659	110924
713.052	110749
712.447	111032
711.843	110470
711.239	110690
710.637	110602
710.036	110314
709.435	110147
708.836	110218
708.238	110375
707.641	110546
707.044	110700
706.449	110460
705.855	110317
705.262	110203
704.669	110057
704.078	109886
703.488	109715
702.899	109315
702.31	109319
701.723	109372
701.137	109441
700.551	109503
699.967	109060
699.384	108457
698.801	107859
698.22	107205
697.639	106270
697.06	105749
696.481	104925
695.904	104311
695.327	104105
694.751	103922
694.177	104020
693.603	104036
693.03	104346
692.458	103320
691.887	102680
691.317	102458
690.748	102144
690.18	102012
689.613	102464
689.047	102756
688.481	103513
687.917	103394
687.353	103672
686.791	103716
686.229	103609
685.669	103078
685.109	103109
684.55	103442
683.992	104318
683.435	104938
682.879	105413
682.323	105401
681.769	104971
681.216	104019
680.663	103101
680.111	102584
679.561	101917
679.011	100571
678.462	99728
677.914	99761
677.366	99435
676.82	98197
676.275	97060
675.73	95439
675.186	93601
674.644	91837
674.102	91026
673.56	89950
673.02	89321
672.481	89055
671.942	88528
671.405	87639
670.868	86285
670.332	84867
669.797	83707
669.263	82677
668.73	81957
668.197	81453
667.665	80852
667.135	80692
666.605	79971
666.076	79212
665.547	78601
665.02	78172
664.493	78134
663.967	77935
663.442	77982
662.918	78390
662.395	79085
661.873	78454
661.351	78702
660.83	78926
660.31	78917
659.791	79324
659.273	79567
658.755	79787
658.238	79732
657.722	79172
657.207	78946
656.693	78570
656.18	78198
655.667	78029
655.155	77590
654.644	77613
654.133	77233
653.624	76835
653.115	76666
652.607	76760
652.1	76822
651.594	77277
651.088	77290
650.583	77121
650.079	76988
649.576	77385
649.074	77990
648.572	78513
648.071	78547
647.571	78491
647.072	78488
646.573	78589
646.075	78742
645.578	78662
645.082	78575
644.587	78451
644.092	78947
643.598	79205
643.105	79366
642.612	79462
642.12	79431
641.629	79573
641.139	79649
640.65	79557
640.161	79805
639.673	79750
639.186	79822
638.699	80340
638.213	80745
637.728	81403
637.244	81769
636.761	82381
636.278	82941
635.796	83523
635.314	83890
634.834	84278
634.354	84362
633.875	84138
633.396	84348
632.918	84549
632.441	84813
631.965	84916
631.49	85090
631.015	85134
630.541	85579
630.067	85505
629.594	85813
629.122	85883
628.651	85684
628.18	85381
627.711	84906
627.241	84164
626.773	83412
626.305	83285
625.838	83410
625.372	84611
624.906	86755
624.441	88605
623.977	91005
623.513	93896
623.05	96637
622.588	97755
622.126	98127
621.665	98668
621.205	98215
620.746	97025
620.287	95763
619.829	95428
619.371	97127
618.914	98426
618.458	101899
618.003	108213
617.548	115742
617.094	126648
616.64	143099
616.187	163735
615.735	193117
615.284	237729
614.833	308506
614.383	451673
613.933	704043
613.485	1129374
613.036	1948780
612.589	2839323
612.142	3221367
611.696	3466032
611.25	3865285
610.805	3916629
610.361	3441721
609.917	3227671
609.474	3061299
609.032	2591962
608.59	1934627
608.149	1454870
607.709	1127746
607.269	864468
606.83	636623
606.391	456260
605.954	332753
605.516	241706
605.08	194720
604.644	164392
604.208	146933
603.774	132596
603.339	122975
602.906	118272
602.473	114624
602.041	110072
601.609	106109
601.178	103562
600.748	100438
600.318	97782
599.889	95186
599.46	93434
599.032	92390
598.605	91215
598.178	89930
597.752	89378
597.327	88864
596.902	88518
596.478	88195
596.054	87597
595.631	87049
595.208	86807
594.787	86278
594.365	85955
593.945	85907
593.524	85222
593.105	85053
592.686	84833
592.268	84672
591.85	84186
591.433	83836
591.016	83630
590.6	83405
590.185	83178
589.77	82861
589.356	82711
588.942	82541
588.529	82154
588.117	82059
587.705	81584
587.294	81518
586.883	81252
586.473	81215
586.063	80955
585.654	80861
585.246	80572
584.838	80552
584.43	80392
584.024	80561
583.618	80706
583.212	80190
582.807	80295
582.402	80301
581.998	80269
581.595	80345
581.192	80234
580.79	80353
580.388	80390
579.987	80249
579.587	80183
579.187	80320
578.787	80258
578.388	80269
577.99	80090
577.592	80206
577.195	80065
576.798	79728
576.402	79321
576.006	79182
575.611	79081
575.216	78835
574.822	78694
574.429	78703
574.036	78586
573.644	78636
573.252	78563
572.86	78335
572.469	77993
572.079	77688
571.689	77401
571.3	76828
570.912	76684
570.523	76251
570.136	75943
569.749	75815
569.362	75684
568.976	75757
568.591	75570
568.206	75394
567.821	75229
567.437	75128
567.054	75025
566.671	74992
566.288	74957
565.906	74807
565.525	74841
565.144	74814
564.764	74473
564.384	74412
564.005	74373
563.626	74443
563.248	74387
562.87	74380
562.492	74222
562.116	74130
561.739	74006
561.364	74175
560.988	74032
560.613	74093
560.239	74463
559.865	74041
559.492	73895
559.119	73799
558.747	73719
558.375	73631
558.004	73575
557.633	73632
557.263	73595
556.893	73430
556.524	73373
556.155	73510
555.787	73395
555.419	73304
555.051	73274
554.684	73143
554.318	73330
553.952	73329
553.587	73209
553.222	73131
552.857	73080
552.493	73079
552.13	73051
551.767	72882
551.404	72794
551.042	73014
550.68	72849
550.319	72836
549.959	72644
549.598	72823
549.239	73056
548.879	72793
548.521	72636
548.162	72558
547.804	72529
547.447	72496
547.09	72461
546.734	72522
546.378	72550
546.022	72358
545.667	72557
545.313	72401
544.958	72287
544.605	72337
544.251	72358
543.899	72239
543.546	72374
543.195	72214
542.843	72447
542.492	72174
542.142	72255
541.792	72277
541.442	72262
541.093	72181
540.744	72244
540.396	72172
540.048	72133
539.701	72027
539.354	72075
539.008	72109
538.662	72064
538.316	72052
537.971	71995
537.626	71907
537.282	71902
536.938	71988
536.595	71947
536.252	72002
535.91	71907
535.568	71886
535.226	71903
534.885	71932
534.544	71841
534.204	71888
