Distance_(pixels),Gray_Value
0,18.381
1,18.742
2,18.836
3,18.928
4,19.039
5,19.131
6,19.223
7,19.322
8,19.458
9,19.519
10,19.805
11,20.126
12,20.404
13,20.510
14,20.549
15,20.994
16,21.764
17,21.832
18,21.793
19,21.796
20,21.774
21,21.779
22,21.713
23,21.832
24,21.421
25,21.028
26,20.756
27,20.440
28,19.728
29,19.412
30,19.234
31,19.098
32,19.447
33,19.603
34,19.735
35,19.932
36,20.079
37,20.257
38,20.339
39,20.431
40,20.450
41,20.461
42,20.466
43,20.486
44,20.509
45,20.529
46,20.585
47,20.589
48,21.052
49,21.020
50,21.071
51,21.265
52,21.561
53,21.766
54,21.808
55,21.827
56,22.012
57,22.205
58,22.315
59,22.460
60,22.604
61,22.635
62,22.658
63,22.742
64,23.067
65,22.994
66,23.000
67,23.143
68,23.209
69,23.162
70,22.891
71,22.682
72,22.392
73,22.353
74,22.093
75,21.638
76,21.334
77,21.117
78,20.890
79,20.461
80,20.546
81,20.352
82,20.199
83,19.995
84,19.944
85,19.814
86,19.879
87,19.807
88,19.700
89,19.801
90,19.823
91,19.768
92,19.660
93,19.689
94,19.671
95,19.664
96,19.753
97,19.467
98,19.547
99,19.586
100,19.646
101,19.847
102,20.340
103,20.604
104,21.531
105,22.099
106,22.412
107,22.762
108,23.512
109,24.333
110,24.914
111,25.649
112,27.043
113,27.730
114,27.863
115,28.024
116,27.953
117,27.800
118,27.587
119,27.329
120,27.227
121,26.471
122,25.905
123,25.204
124,24.743
125,24.431
126,24.220
127,24.219
128,23.737
129,23.743
130,23.574
131,23.394
132,23.148
133,23.010
134,22.963
135,22.878
136,22.439
137,22.653
138,22.686
139,22.684
140,22.681
141,22.685
142,22.692
143,22.698
144,22.820
145,22.699
146,22.833
147,22.749
148,22.626
149,22.420
150,22.421
151,22.375
152,22.529
153,22.390
154,22.589
155,22.775
156,22.742
157,22.544
158,22.718
159,23.037
160,23.893
161,24.782
162,25.429
163,26.332
164,27.192
165,27.952
166,28.557
167,29.085
168,29.408
169,29.826
170,29.662
171,29.615
172,29.461
173,29.431
174,29.205
175,28.939
176,28.324
177,27.730
178,27.153
179,26.621
180,26.249
181,25.744
182,25.373
183,24.943
184,24.861
185,24.985
186,24.947
187,24.937
188,24.938
189,24.928
190,24.918
191,24.925
192,25.073
193,25.279
194,25.304
195,25.360
196,25.397
197,25.766
198,25.700
199,25.656
200,25.484
201,25.930
202,26.109
203,26.328
204,26.488
205,26.864
206,27.009
207,27.177
208,27.416
209,27.197
210,27.225
211,26.990
212,27.278
213,27.388
214,27.412
215,27.052
216,27.245
217,27.342
218,27.137
219,26.679
220,26.211
221,25.655
222,25.430
223,25.077
224,24.699
225,24.377
226,24.255
227,24.160
228,24.215
229,24.426
230,24.363
231,24.416
232,24.387
233,24.912
234,25.038
235,25.607
236,25.727
237,25.884
238,25.959
239,26.332
240,26.298
241,26.979
242,27.091
243,27.220
244,27.440
245,27.726
246,27.923
247,28.312
248,28.893
249,29.343
250,29.935
251,30.881
252,31.754
253,32.498
254,32.733
255,32.865
256,33.338
257,33.075
258,32.881
259,32.619
260,32.512
261,32.662
262,33.006
263,33.255
264,33.580
265,33.613
266,33.509
267,33.468
268,33.394
269,33.363
270,33.283
271,33.157
272,32.470
273,31.929
274,31.327
275,30.490
276,29.586
277,28.484
278,27.545
279,26.956
280,26.284
281,25.797
282,25.993
283,26.169
284,26.393
285,26.704
286,26.937
287,27.095
288,28.104
289,29.223
290,29.974
291,30.674
292,31.163
293,31.406
294,31.374
295,31.401
296,31.222
297,31.372
298,31.235
299,30.875
300,30.627
301,30.265
302,30.088
303,29.904
304,29.941
305,30.190
306,30.188
307,30.481
308,30.727
309,31.055
310,31.632
311,32.481
312,33.203
313,34.206
314,35.137
315,35.830
316,35.905
317,35.291
318,34.352
319,33.277
320,31.292
321,30.108
322,29.733
323,29.611
324,29.582
325,29.696
326,30.014
327,30.271
328,30.255
329,29.969
330,29.947
331,29.727
332,29.553
333,29.432
334,29.386
335,29.228
336,29.344
337,30.155
338,30.434
339,30.889
340,31.478
341,31.932
342,32.539
343,32.878
344,33.345
345,33.845
346,33.824
347,33.814
348,33.592
349,33.327
350,33.202
351,32.965
352,32.443
353,31.783
354,31.695
355,31.749
356,31.807
357,31.948
358,32.126
359,32.389
360,32.699
361,33.718
362,34.889
363,36.676
364,38.812
365,41.246
366,43.407
367,45.061
368,45.242
369,45.030
370,44.311
371,43.350
372,42.519
373,41.692
374,40.753
375,39.680
376,38.772
377,37.764
378,37.243
379,36.717
380,36.058
381,35.768
382,35.774
383,35.998
384,36.581
385,37.519
386,38.003
387,38.503
388,38.671
389,38.888
390,38.979
391,38.996
392,38.731
393,38.665
394,38.601
395,38.147
396,37.933
397,37.875
398,37.624
399,37.409
400,37.215
401,37.490
402,37.572
403,37.607
404,37.595
405,37.671
406,37.454
407,37.268
408,37.003
409,37.020
410,36.752
411,36.499
412,36.460
413,36.647
414,36.648
415,36.764
416,37.268
417,37.603
418,37.455
419,37.437
420,37.206
421,37.080
422,36.909
423,36.648
424,36.418
425,35.981
426,35.866
427,35.600
428,35.481
429,35.391
430,35.385
431,35.402
432,35.357
433,35.330
434,35.257
435,35.453
436,35.777
437,37.039
438,38.869
439,41.109
440,42.935
441,45.358
442,46.504
443,46.756
444,46.186
445,45.090
446,43.736
447,42.170
448,40.397
449,37.824
450,36.306
451,36.204
452,36.172
453,36.621
454,37.388
455,38.477
456,39.481
457,40.446
458,41.239
459,42.405
460,43.498
461,44.767
462,45.727
463,46.566
464,46.910
465,46.964
466,47.074
467,47.027
468,46.899
469,46.236
470,45.652
471,45.090
472,44.771
473,43.925
474,43.186
475,42.941
476,42.264
477,41.711
478,41.467
479,41.334
480,41.428
481,41.348
482,41.019
483,40.877
484,40.740
485,40.945
486,40.859
487,40.919
488,41.316
489,41.442
490,41.456
491,41.595
492,41.604
493,41.283
494,40.926
495,40.538
496,40.273
497,40.062
498,39.519
499,39.741
500,40.094
501,40.459
502,40.784
503,41.186
504,41.347
505,42.346
506,43.697
507,44.856
508,46.278
509,47.726
510,49.635
511,52.209
512,55.209
513,59.529
514,61.458
515,63.083
516,63.914
517,63.006
518,60.937
519,58.118
520,55.427
521,51.418
522,48.228
523,45.163
524,42.493
525,40.929
526,40.014
527,39.798
528,39.573
529,39.512
530,39.543
531,39.872
532,40.002
533,40.471
534,40.584
535,40.896
536,40.957
537,40.763
538,40.444
539,40.486
540,40.114
541,39.953
542,39.506
543,39.458
544,38.949
545,38.530
546,38.489
547,38.162
548,37.736
549,37.682
550,38.449
551,39.514
552,40.695
553,42.380
554,45.212
555,47.530
556,49.888
557,52.708
558,55.758
559,58.769
560,61.477
561,65.297
562,66.952
563,68.263
564,68.550
565,67.727
566,65.971
567,64.643
568,64.067
569,63.035
570,63.008
571,61.906
572,60.374
573,58.848
574,56.877
575,54.393
576,52.314
577,51.389
578,50.631
579,50.230
580,49.729
581,49.606
582,49.771
583,50.116
584,50.302
585,51.219
586,51.943
587,52.413
588,52.697
589,52.639
590,52.382
591,52.119
592,51.661
593,50.693
594,50.076
595,49.359
596,48.813
597,48.374
598,48.326
599,48.033
600,48.155
601,48.977
602,49.225
603,49.420
604,49.650
605,50.022
606,50.407
607,50.631
608,50.754
609,50.476
610,50.500
611,51.649
612,53.243
613,55.835
614,58.408
615,60.412
616,61.796
617,62.056
618,62.184
619,61.385
620,60.569
621,59.592
622,58.575
623,57.524
624,56.600
625,55.642
626,54.106
627,53.487
628,53.222
629,52.674
630,52.149
631,51.705
632,51.414
633,50.956
634,50.947
635,50.440
636,49.952
637,49.250
638,48.960
639,48.778
640,48.745
641,47.970
642,47.254
643,47.218
644,47.177
645,47.101
646,47.060
647,47.103
648,47.066
649,46.711
650,47.066
651,47.190
652,47.836
653,48.882
654,51.047
655,53.734
656,56.503
657,60.753
658,63.819
659,65.869
660,66.868
661,66.446
662,64.814
663,63.023
664,61.804
665,59.666
666,58.697
667,58.037
668,57.995
669,59.011
670,59.860
671,60.532
672,60.806
673,60.739
674,60.725
675,60.054
676,59.504
677,59.287
678,59.560
679,60.053
680,60.831
681,62.069
682,63.887
683,65.214
684,66.278
685,66.458
686,65.599
687,64.062
688,62.653
689,59.809
690,56.684
691,54.687
692,53.097
693,52.079
694,51.589
695,52.049
696,52.662
697,53.925
698,55.300
699,56.674
700,58.199
701,59.285
702,60.320
703,61.386
704,62.461
705,64.158
706,65.737
707,67.492
708,69.316
709,71.328
710,73.231
711,74.427
712,75.229
713,74.419
714,73.799
715,72.969
716,72.262
717,71.714
718,71.598
719,71.529
720,71.615
721,71.562
722,71.203
723,69.975
724,68.045
725,65.748
726,63.412
727,61.470
728,59.826
729,58.666
730,58.042
731,57.997
732,58.634
733,59.952
734,61.051
735,61.863
736,62.515
737,62.044
738,63.456
739,63.204
740,62.175
741,60.978
742,59.834
743,59.042
744,58.766
745,59.475
746,60.518
747,62.263
748,64.848
749,67.909
750,70.850
751,73.357
752,75.328
753,76.950
754,79.426
755,81.255
756,83.395
757,85.284
758,86.604
759,87.667
760,88.522
761,88.949
762,88.774
763,87.273
764,85.393
765,83.492
766,82.109
767,81.160
768,80.577
769,80.752
770,81.316
771,81.095
772,80.775
773,80.488
774,79.815
775,78.316
776,76.402
777,73.934
778,71.833
779,70.793
780,69.898
781,69.052
782,68.594
783,68.444
784,68.723
785,69.182
786,69.247
787,68.214
788,67.199
789,66.213
790,66.011
791,66.260
792,66.970
793,68.548
794,70.522
795,71.491
796,72.415
797,72.783
798,73.507
799,74.458
800,75.849
801,77.501
802,79.680
803,81.548
804,83.260
805,84.463
806,85.436
807,86.755
808,88.348
809,89.516
810,89.949
811,89.305
812,87.975
813,85.923
814,83.421
815,81.823
816,81.104
817,81.098
818,81.714
819,80.250
820,76.921
821,72.402
822,67.918
823,65.051
824,64.013
825,64.627
826,66.440
827,67.804
828,69.505
829,70.324
830,70.103
831,68.956
832,67.733
833,66.199
834,65.043
835,65.031
836,64.910
837,65.247
838,66.141
839,67.305
840,68.248
841,68.857
842,69.372
843,69.246
844,69.209
845,69.010
846,69.279
847,70.109
848,71.670
849,73.933
850,77.628
851,79.997
852,81.263
853,81.203
854,80.063
855,78.759
856,77.929
857,77.529
858,77.048
859,77.558
860,79.097
861,80.746
862,82.545
863,84.043
864,85.054
865,85.362
866,85.228
867,84.726
868,83.839
869,82.767
870,82.168
871,81.626
872,81.350
873,80.839
874,79.726
875,79.193
876,79.076
877,79.316
878,80.332
879,81.986
880,83.923
881,84.867
882,85.536
883,84.886
884,83.731
885,82.043
886,80.171
887,78.165
888,76.640
889,75.515
890,74.901
891,75.062
892,75.681
893,76.224
894,77.203
895,78.751
896,80.900
897,84.357
898,89.711
899,92.859
900,94.939
901,95.491
902,94.615
903,93.229
904,92.046
905,91.650
906,92.971
907,94.951
908,97.497
909,100.008
910,101.514
911,100.896
912,98.933
913,96.653
914,93.548
915,91.604
916,90.124
917,88.640
918,87.686
919,86.675
920,85.725
921,84.971
922,85.483
923,85.921
924,85.968
925,86.287
926,86.859
927,87.469
928,88.462
929,89.723
930,91.232
931,91.481
932,92.016
933,92.491
934,92.610
935,93.113
936,94.253
937,95.444
938,97.777
939,100.254
940,102.574
941,104.520
942,105.595
943,106.433
944,107.486
945,108.719
946,110.692
947,112.265
948,112.896
949,113.518
950,114.114
951,114.527
952,114.731
953,115.085
954,116.034
955,115.976
956,116.566
957,117.468
958,118.352
959,119.320
960,120.151
961,120.538
962,119.827
963,119.557
964,118.771
965,117.536
966,115.994
967,114.676
968,113.210
969,112.231
970,111.754
971,111.029
972,110.967
973,111.307
974,111.776
975,112.416
976,112.992
977,113.491
978,114.342
979,114.880
980,114.388
981,113.578
982,112.837
983,112.248
984,111.995
985,111.813
986,111.943
987,113.360
988,115.530
989,117.919
990,121.038
991,124.529
992,128.309
993,130.941
994,133.983
995,136.500
996,139.409
997,146.116
998,158.311
999,172.708
1000,184.350
1001,191.251
1002,194.395
1003,194.953
1004,190.967
1005,181.553
1006,171.066
1007,164.228
1008,162.818
1009,164.933
1010,165.604
1011,161.813
1012,150.243
1013,140.144
1014,134.353
1015,129.800
1016,127.990
1017,131.048
1018,139.119
1019,142.761
1020,139.869
1021,133.354
1022,128.849
1023,128.506
1024,132.320
1025,137.579
1026,141.960
1027,146.973
1028,149.736
1029,150.585
1030,149.290
1031,147.687
1032,148.294
1033,149.539
1034,151.309
1035,154.195
1036,157.931
1037,170.074
1038,189.367
1039,207.264
1040,219.508
1041,226.003
1042,228.562
1043,230.355
1044,234.063
1045,239.857
1046,244.542
1047,246.832
1048,247.561
1049,247.700
1050,248.054
1051,248.513
1052,248.803
1053,248.707
1054,246.904
1055,244.387
1056,242.379
1057,241.827
1058,242.124
1059,242.260
1060,242.039
1061,240.709
1062,237.562
1063,232.610
1064,226.930
1065,222.579
1066,220.611
1067,219.725
1068,218.291
1069,212.880
1070,202.877
1071,188.900
1072,173.924
1073,163.450
1074,158.110
1075,157.477
1076,156.351
1077,153.780
1078,149.292
1079,143.121
1080,136.881
1081,132.097
1082,128.558
1083,125.781
1084,123.899
1085,122.976
1086,128.033
1087,139.740
1088,147.855
1089,151.969
1090,151.132
1091,150.593
1092,153.577
1093,158.054
1094,158.117
1095,155.718
1096,153.265
1097,152.807
1098,152.651
1099,150.042
1100,147.307
1101,145.542
1102,146.894
1103,150.594
1104,154.023
1105,155.698
1106,156.394
1107,157.655
1108,154.247
1109,146.002
1110,136.063
1111,127.706
1112,121.266
1113,116.724
1114,114.313
1115,113.732
1116,113.599
1117,114.257
1118,114.742
1119,115.155
1120,114.373
1121,112.736
1122,110.758
1123,108.126
1124,106.477
1125,104.452
1126,102.556
1127,100.877
1128,99.380
1129,98.381
1130,97.919
1131,97.248
1132,96.828
1133,95.797
1134,95.040
1135,95.321
1136,96.498
1137,98.523
1138,101.407
1139,105.540
1140,107.632
1141,109.306
1142,111.083
1143,112.910
1144,114.140
1145,115.040
1146,115.972
1147,116.552
1148,117.286
1149,118.215
1150,119.187
1151,119.920
1152,120.075
1153,119.842
1154,118.648
1155,116.825
1156,115.144
1157,113.365
1158,111.612
1159,110.197
1160,109.076
1161,108.526
1162,108.254
1163,107.300
1164,105.632
1165,103.611
1166,101.163
1167,98.537
1168,96.319
1169,94.926
1170,94.533
1171,93.713
1172,92.927
1173,92.250
1174,91.002
1175,89.584
1176,88.090
1177,86.472
1178,84.872
1179,82.792
1180,80.722
1181,78.678
1182,76.692
1183,75.410
1184,75.498
1185,76.446
1186,78.963
1187,83.231
1188,86.681
1189,90.327
1190,93.222
1191,94.851
1192,94.995
1193,94.239
1194,92.967
1195,90.480
1196,88.342
1197,86.372
1198,84.724
1199,83.226
1200,81.666
1201,79.976
1202,79.346
1203,78.803
1204,78.159
1205,77.074
1206,75.436
1207,73.954
1208,72.512
1209,71.612
1210,70.878
1211,71.212
1212,71.664
1213,71.939
1214,72.079
1215,71.896
1216,71.407
1217,70.949
1218,70.350
1219,69.544
1220,68.894
1221,68.065
1222,67.051
1223,66.388
1224,66.353
1225,67.165
1226,68.090
1227,70.612
1228,72.299
1229,73.568
1230,74.904
1231,75.824
1232,76.389
1233,77.059
1234,78.191
1235,79.240
1236,79.801
1237,81.279
1238,83.081
1239,85.280
1240,87.392
1241,89.205
1242,90.222
1243,90.979
1244,90.672
1245,89.703
1246,88.308
1247,86.371
1248,82.797
1249,78.840
1250,74.785
1251,70.148
1252,67.105
1253,64.812
1254,63.439
1255,62.712
1256,62.350
1257,61.742
1258,61.280
1259,61.616
1260,61.882
1261,62.623
1262,63.230
1263,63.586
1264,63.532
1265,63.163
1266,62.695
1267,61.001
1268,59.613
1269,58.785
1270,58.416
1271,58.512
1272,58.943
1273,59.907
1274,60.661
1275,60.770
1276,61.188
1277,62.121
1278,63.618
1279,65.493
1280,67.204
1281,68.919
1282,70.498
1283,72.449
1284,73.646
1285,74.360
1286,75.149
1287,76.127
1288,77.486
1289,78.851
1290,79.998
1291,81.028
1292,81.457
1293,81.193
1294,80.476
1295,79.429
1296,78.663
1297,78.326
1298,78.580
1299,79.384
1300,78.682
1301,78.394
1302,77.789
1303,77.173
1304,76.304
1305,75.760
1306,75.265
1307,75.370
1308,75.873
1309,75.824
1310,75.211
1311,73.585
1312,71.195
1313,68.883
1314,66.765
1315,63.874
1316,62.159
1317,61.088
1318,59.997
1319,59.124
1320,58.542
1321,58.328
1322,58.242
1323,58.103
1324,58.149
1325,58.107
1326,58.277
1327,58.378
1328,58.732
1329,59.218
1330,59.639
1331,60.602
1332,61.063
1333,61.252
1334,62.115
1335,64.055
1336,66.562
1337,69.319
1338,72.081
1339,76.004
1340,77.789
1341,78.698
1342,79.131
1343,79.308
1344,79.196
1345,79.225
1346,79.826
1347,80.654
1348,80.223
1349,79.679
1350,78.619
1351,76.621
1352,73.713
1353,70.460
1354,68.094
1355,64.545
1356,62.227
1357,60.819
1358,60.386
1359,61.057
1360,61.931
1361,63.143
1362,63.835
1363,65.076
1364,64.997
1365,63.561
1366,61.645
1367,59.872
1368,58.183
1369,57.084
1370,56.500
1371,56.818
1372,56.809
1373,57.581
1374,58.383
1375,59.307
1376,59.974
1377,60.625
1378,61.049
1379,62.130
1380,61.816
1381,62.063
1382,62.628
1383,63.064
1384,63.125
1385,63.271
1386,63.254
1387,62.971
1388,62.792
1389,62.114
1390,61.569
1391,61.146
1392,60.234
1393,58.809
1394,57.187
1395,54.348
1396,52.530
1397,51.857
1398,51.347
1399,51.206
1400,51.206
1401,51.633
1402,52.269
1403,54.087
1404,55.797
1405,57.622
1406,60.053
1407,61.928
1408,63.627
1409,64.823
1410,65.266
1411,64.973
1412,64.614
1413,62.795
1414,60.086
1415,56.894
1416,53.856
1417,51.105
1418,49.060
1419,47.447
1420,45.732
1421,44.807
1422,43.854
1423,43.175
1424,42.846
1425,42.873
1426,43.025
1427,44.061
1428,44.559
1429,45.112
1430,45.559
1431,46.137
1432,46.878
1433,47.779
1434,48.676
1435,49.373
1436,50.004
1437,50.589
1438,51.213
1439,51.826
1440,52.406
1441,52.710
1442,53.157
1443,53.736
1444,54.120
1445,54.151
1446,54.325
1447,54.540
1448,55.025
1449,55.325
1450,55.407
1451,55.094
1452,55.334
1453,54.638
1454,54.264
1455,53.742
1456,53.148
1457,52.670
1458,52.409
1459,52.017
1460,51.184
1461,50.889
1462,50.475
1463,50.067
1464,49.535
1465,49.173
1466,48.760
1467,48.237
1468,48.187
1469,47.628
1470,46.906
1471,45.791
1472,44.518
1473,43.397
1474,42.261
1475,41.444
1476,40.191
1477,39.600
1478,39.010
1479,38.749
1480,38.853
1481,39.470
1482,39.822
1483,40.541
1484,40.625
1485,41.241
1486,41.924
1487,42.748
1488,43.356
1489,44.036
1490,44.508
1491,45.179
1492,46.148
1493,46.698
1494,46.971
1495,47.302
1496,47.418
1497,47.318
1498,47.063
1499,46.404
1500,45.229
1501,44.432
1502,43.385
1503,42.379
1504,41.857
1505,41.488
1506,41.265
1507,40.681
1508,40.889
1509,41.082
1510,41.502
1511,41.982
1512,42.294
1513,42.225
1514,42.301
1515,42.251
1516,42.263
1517,42.095
1518,41.896
1519,41.519
1520,40.951
1521,40.283
1522,39.738
1523,39.197
1524,38.152
1525,38.093
1526,38.356
1527,38.186
1528,38.404
1529,39.218
1530,39.685
1531,40.290
1532,40.387
1533,40.737
1534,41.318
1535,41.470
1536,41.875
1537,41.969
1538,42.040
1539,41.710
1540,41.142
1541,40.765
1542,40.246
1543,39.455
1544,38.573
1545,37.803
1546,37.310
1547,36.813
1548,36.202
1549,35.913
1550,35.486
1551,35.272
1552,35.280
1553,35.566
1554,35.845
1555,36.084
1556,35.777
1557,35.826
1558,36.422
1559,36.802
1560,37.252
1561,37.524
1562,38.089
1563,38.312
1564,38.469
1565,38.460
1566,38.333
1567,38.262
1568,37.855
1569,37.667
1570,37.393
1571,37.174
1572,36.819
1573,36.691
1574,36.440
1575,36.616
1576,36.769
1577,37.050
1578,37.580
1579,38.146
1580,39.151
1581,39.348
1582,39.477
1583,39.491
1584,39.663
1585,39.744
1586,39.870
1587,39.775
1588,39.496
1589,39.283
1590,38.932
1591,38.578
1592,38.100
1593,37.735
1594,37.461
1595,36.768
1596,35.485
1597,35.034
1598,34.441
1599,33.867
1600,33.019
1601,32.359
1602,32.197
1603,32.185
1604,32.389
1605,32.484
1606,32.467
1607,32.455
1608,32.286
1609,32.164
1610,32.127
1611,31.923
1612,31.996
1613,32.247
1614,32.697
1615,33.014
1616,33.648
1617,33.970
1618,34.552
1619,34.641
1620,34.599
1621,34.817
1622,35.001
1623,35.491
1624,35.877
1625,36.135
1626,36.491
1627,36.628
1628,36.942
1629,36.935
1630,36.775
1631,36.184
1632,35.282
1633,34.160
1634,33.363
1635,31.831
1636,30.391
1637,29.824
1638,29.240
1639,28.748
1640,27.865
1641,27.135
1642,26.403
1643,26.051
1644,25.118
1645,24.952
1646,24.972
1647,25.032
1648,24.813
1649,24.778
1650,24.877
1651,24.790
1652,25.145
1653,25.161
1654,25.252
1655,25.278
1656,25.309
1657,25.206
1658,25.090
1659,25.304
1660,25.748
1661,25.943
1662,26.182
1663,26.391
1664,26.726
1665,26.876
1666,27.011
1667,27.271
1668,27.540
1669,27.492
1670,27.642
1671,27.885
1672,28.204
1673,28.608
1674,28.783
1675,28.731
1676,28.994
1677,29.152
1678,29.054
1679,28.793
1680,28.648
1681,28.440
1682,28.454
1683,28.408
1684,28.370
1685,27.990
1686,27.840
1687,27.644
1688,27.273
1689,27.186
1690,27.060
1691,26.900
1692,26.458
1693,26.127
1694,25.796
1695,25.698
1696,25.531
1697,25.376
1698,25.195
1699,25.217
1700,24.964
1701,24.787
1702,24.719
1703,24.717
1704,24.665
1705,24.563
1706,24.638
1707,24.717
1708,24.710
1709,24.641
1710,25.031
1711,25.177
1712,25.181
1713,25.217
1714,25.555
1715,25.633
1716,25.565
1717,25.580
1718,25.633
1719,25.717
1720,25.870
1721,26.177
1722,26.410
1723,26.641
1724,26.422
1725,26.317
1726,26.193
1727,26.130
1728,25.998
1729,26.022
1730,25.900
1731,25.963
1732,26.150
1733,26.025
1734,25.800
1735,25.780
1736,25.449
1737,25.234
1738,24.883
1739,24.921
1740,24.834
1741,24.715
1742,24.282
1743,23.940
1744,23.582
1745,23.379
1746,23.207
1747,23.178
1748,23.344
1749,23.011
1750,23.462
1751,23.672
1752,23.888
1753,24.092
1754,24.564
1755,24.724
1756,24.885
1757,25.073
1758,25.356
1759,25.500
1760,25.599
1761,25.704
1762,25.896
1763,26.076
1764,26.452
1765,26.554
1766,26.580
1767,26.583
1768,26.582
1769,26.569
1770,26.584
1771,26.590
1772,26.942
1773,26.877
1774,26.814
1775,26.905
1776,27.029
1777,27.121
1778,27.215
1779,27.163
1780,27.230
1781,27.016
1782,27.068
1783,27.305
1784,27.692
1785,27.843
1786,27.871
1787,27.870
1788,27.312
1789,27.285
1790,27.107
1791,26.716
1792,26.363
1793,25.794
1794,25.181
1795,24.791
1796,24.342
1797,23.471
1798,23.063
1799,22.591
1800,21.959
1801,21.269
1802,20.700
1803,20.292
1804,19.330
1805,18.942
1806,18.708
1807,18.458
1808,18.300
1809,18.248
1810,18.060
1811,17.944
1812,18.438
1813,18.951
1814,18.951
1815,18.993
1816,19.346
1817,19.529
1818,19.532
1819,19.542
1820,19.567
1821,19.566
1822,19.563
1823,19.570
1824,19.623
1825,19.621
1826,19.698
1827,19.527
1828,19.072
1829,18.760
1830,18.727
1831,18.582
1832,18.303
1833,18.303
1834,18.230
1835,18.165
1836,17.803
1837,17.812
1838,18.062
1839,17.958
1840,17.764
1841,17.579
1842,17.669
1843,17.493
1844,17.050
1845,17.097
1846,17.036
1847,17.039
1848,16.854
1849,16.610
1850,16.559
1851,16.462
1852,16.612
1853,16.438
1854,16.476
1855,16.432
1856,16.221
1857,15.727
1858,15.742
1859,15.774
1860,15.595
1861,15.300
1862,15.351
1863,15.347
1864,15.276
1865,15.087
1866,15.075
1867,15.070
1868,15.065
1869,14.911
1870,15.075
1871,15.382
1872,15.880
1873,16.342
1874,16.348
1875,16.349
1876,16.445
1877,16.420
1878,16.525
1879,16.852
1880,17.006
1881,17.343
1882,17.518
1883,17.877
1884,17.909
1885,17.768
1886,17.682
1887,17.557
1888,17.279
1889,16.980
1890,16.868
1891,16.578
1892,16.079
1893,16.216
1894,16.012
1895,15.897
1896,15.534
1897,15.295
1898,15.173
1899,15.021
1900,15.223
1901,14.929
1902,14.845
1903,14.754
1904,14.683
1905,14.992
1906,14.767
1907,14.839
1908,15.157
1909,15.153
1910,15.158
1911,15.162
1912,15.163
1913,15.011
1914,14.935
1915,14.920
1916,15.135
1917,15.303
1918,15.300
1919,15.303
1920,15.305
1921,15.307
1922,15.310
1923,15.318
1924,15.520
1925,15.708
1926,15.381
1927,15.290
1928,15.289
1929,15.159
1930,14.813
1931,14.736
1932,15.055
1933,15.296
1934,15.338
1935,15.173
1936,15.134
1937,15.134
1938,15.134
1939,14.950
1940,14.670
1941,14.759
1942,14.802
1943,14.878
1944,15.206
1945,15.267
1946,15.239
1947,15.276
1948,14.843
1949,14.196
1950,13.628
1951,13.152
1952,13.024
1953,13.008
1954,13.273
1955,13.333
1956,12.953
1957,12.654
1958,12.758
1959,12.858
1960,12.883
1961,12.921
1962,13.022
1963,13.101
1964,12.805
1965,12.289
1966,11.874
1967,11.272
1968,11.059
1969,10.972
1970,10.545
1971,9.885
1972,10.059
1973,10.309
1974,10.315
1975,10.321
1976,10.527
1977,10.573
1978,10.575
1979,10.577
1980,10.844
1981,10.825
1982,10.821
1983,10.817
1984,10.967
1985,11.211
1986,11.208
1987,11.204
1988,11.033
1989,10.783
1990,10.733
1991,10.733
1992,10.733
1993,10.733
1994,10.733
1995,10.733
1996,10.361
1997,9.952
1998,9.955
1999,9.957
2000,9.959
2001,9.962
2002,9.964
2003,9.967
2004,10.026
2005,10.233
2006,10.239
2007,10.245
2008,10.242
2009,9.915
2010,9.862
2011,9.868
2012,10.154
2013,10.332
2014,10.332
2015,10.332
2016,10.143
2017,9.876
2018,9.825
2019,9.822
2020,9.859
2021,10.295
2022,10.328
2023,10.333
2024,10.531
2025,10.707
2026,10.666
2027,10.641
2028,10.683
2029,10.468
2030,10.361
2031,10.346
2032,10.098
2033,9.894
2034,9.882
2035,9.879
2036,9.812
2037,9.414
2038,9.394
2039,9.406
2040,9.420
2041,9.437
2042,9.447
2043,9.468
2044,9.556
2045,10.048
2046,10.131
2047,10.130
2048,10.171
2049,10.194
2050,10.249
2051,10.316
2052,10.208
2053,10.594
2054,10.499
2055,10.454
2056,10.309
2057,10.201
2058,10.201
2059,10.175
2060,10.132
2061,9.702
2062,9.638
2063,9.589
2064,9.516
2065,9.467
2066,9.467
2067,9.435
2068,9.344
2069,9.686
2070,9.796
2071,9.761
2072,9.727
2073,9.741
2074,9.731
2075,9.755
2076,9.665
2077,9.541
2078,9.591
2079,9.576
2080,9.416
2081,9.088
2082,8.876
2083,8.767
2084,9.020
2085,9.338
2086,9.368
2087,9.343
2088,9.270
2089,9.310
2090,9.137
2091,9.133
2092,9.121
2093,9.006
