Distance_(pixels),Gray_Value
0,5.495
1,5.489
2,5.487
3,5.485
4,5.483
5,5.574
6,5.583
7,5.662
8,5.664
9,5.815
10,5.865
11,5.890
12,5.867
13,5.879
14,5.899
15,5.568
16,5.573
17,5.593
18,5.566
19,5.538
20,5.564
21,5.698
22,5.689
23,5.553
24,5.525
25,5.987
26,6.022
27,6.001
28,5.961
29,5.667
30,5.697
31,5.796
32,5.733
33,5.665
34,5.690
35,6.100
36,6.195
37,6.058
38,6.071
39,6.122
40,6.107
41,5.958
42,5.961
43,6.151
44,6.178
45,6.148
46,6.068
47,5.908
48,5.919
49,5.917
50,5.888
51,5.870
52,5.896
53,5.897
54,5.926
55,6.050
56,6.065
57,6.067
58,6.091
59,6.094
60,6.062
61,6.060
62,6.115
63,6.360
64,6.340
65,6.336
66,6.333
67,6.329
68,6.325
69,6.322
70,6.389
71,6.656
72,6.710
73,6.707
74,6.703
75,7.017
76,7.096
77,7.092
78,7.139
79,7.646
80,7.731
81,7.698
82,7.696
83,7.695
84,7.684
85,7.712
86,7.702
87,7.801
88,7.851
89,7.902
90,7.906
91,7.908
92,7.912
93,7.946
94,7.862
95,7.341
96,7.212
97,7.259
98,7.268
99,7.347
100,7.383
101,7.590
102,7.566
103,7.371
104,7.535
105,8.098
106,8.228
107,8.288
108,8.176
109,7.992
110,7.939
111,7.826
112,7.888
113,7.764
114,7.667
115,7.667
116,7.667
117,7.580
118,7.489
119,7.677
120,7.749
121,7.805
122,7.884
123,7.875
124,7.832
125,7.974
126,8.128
127,8.661
128,8.723
129,8.725
130,8.728
131,8.730
132,8.732
133,8.783
134,8.827
135,8.807
136,8.800
137,9.232
138,9.305
139,9.308
140,9.315
141,9.691
142,9.670
143,9.338
144,9.351
145,9.355
146,9.358
147,9.044
148,9.002
149,9.070
150,9.076
151,9.264
152,9.447
153,9.594
154,9.676
155,9.983
156,9.991
157,10.025
158,10.031
159,9.845
160,9.761
161,9.796
162,9.801
163,10.154
164,10.207
165,10.278
166,10.357
167,10.952
168,11.053
169,11.040
170,11.017
171,10.818
172,10.666
173,10.685
174,10.676
175,11.020
176,11.201
177,11.145
178,11.145
179,11.144
180,11.141
181,11.076
182,11.029
183,10.741
184,10.771
185,10.671
186,10.696
187,10.760
188,10.796
189,10.745
190,10.811
191,10.748
192,10.780
193,10.821
194,10.881
195,11.039
196,11.128
197,11.154
198,11.170
199,11.538
200,11.671
201,11.753
202,11.733
203,11.733
204,11.735
205,11.774
206,11.778
207,11.895
208,12.076
209,12.079
210,12.052
211,11.925
212,11.930
213,11.935
214,11.961
215,12.180
216,12.342
217,12.650
218,12.673
219,12.676
220,12.688
221,13.053
222,13.085
223,12.705
224,12.411
225,12.411
226,12.410
227,12.436
228,12.496
229,12.560
230,12.561
231,12.734
232,12.855
233,12.911
234,12.950
235,12.918
236,12.957
237,12.960
238,12.982
239,12.830
240,12.700
241,12.764
242,12.764
243,13.075
244,13.229
245,13.255
246,13.217
247,13.263
248,13.333
249,13.357
250,13.317
251,13.378
252,13.383
253,13.449
254,13.498
255,14.019
256,14.079
257,14.132
258,14.139
259,13.745
260,13.604
261,13.410
262,13.372
263,13.442
264,13.612
265,13.326
266,13.324
267,13.771
268,14.010
269,14.516
270,14.515
271,14.022
272,13.897
273,13.904
274,13.925
275,13.929
276,13.944
277,14.118
278,14.219
279,14.906
280,15.066
281,15.066
282,15.066
283,15.066
284,15.067
285,15.094
286,15.075
287,15.124
288,15.208
289,15.211
290,15.193
291,14.873
292,14.868
293,14.843
294,14.862
295,15.674
296,15.775
297,15.706
298,15.708
299,15.679
300,15.681
301,15.684
302,15.687
303,15.620
304,15.836
305,16.062
306,16.215
307,16.252
308,16.189
309,15.928
310,15.790
311,15.887
312,15.807
313,15.790
314,15.777
315,16.059
316,16.180
317,16.149
318,16.091
319,15.650
320,15.730
321,15.737
322,15.745
323,15.752
324,15.760
325,15.773
326,15.788
327,15.888
328,15.828
329,15.894
330,15.902
331,15.906
332,15.909
333,15.913
334,15.943
335,16.758
336,17.108
337,17.137
338,17.150
339,17.185
340,17.195
341,17.253
342,17.272
343,16.974
344,16.867
345,16.956
346,17.170
347,17.438
348,17.721
349,17.816
350,17.858
351,17.661
352,17.782
353,17.783
354,17.782
355,17.749
356,17.746
357,17.733
358,17.732
359,18.126
360,18.456
361,18.443
362,18.430
363,18.432
364,18.435
365,18.439
366,18.477
367,18.815
368,18.743
369,18.742
370,18.749
371,18.828
372,18.620
373,18.679
374,18.688
375,19.152
376,19.352
377,19.393
378,19.450
379,19.765
380,19.924
381,19.916
382,19.924
383,19.864
384,20.149
385,20.182
386,20.164
387,19.930
388,19.902
389,19.807
390,19.749
391,19.765
392,19.744
393,19.660
394,19.624
395,19.550
396,19.530
397,19.515
398,19.564
399,19.803
400,19.718
401,19.645
402,19.615
403,19.859
404,20.007
405,19.930
406,19.915
407,20.198
408,20.279
409,20.129
410,19.955
411,19.997
412,20.054
413,20.003
414,19.930
415,20.203
416,20.443
417,20.681
418,20.779
419,21.039
420,21.201
421,21.450
422,21.536
423,21.497
424,21.520
425,21.561
426,21.594
427,21.524
428,21.522
429,21.541
430,21.554
431,21.970
432,22.116
433,22.305
434,22.514
435,22.534
436,22.601
437,22.429
438,22.218
439,22.053
440,22.305
441,22.309
442,22.303
443,22.433
444,22.363
445,22.354
446,22.366
447,23.527
448,24.272
449,24.627
450,25.089
451,25.247
452,25.235
453,25.005
454,24.671
455,24.305
456,23.863
457,23.725
458,23.590
459,23.411
460,23.270
461,23.203
462,23.109
463,22.396
464,21.879
465,21.845
466,21.915
467,22.057
468,22.107
469,22.155
470,22.259
471,22.560
472,22.662
473,22.412
474,22.381
475,22.716
476,22.785
477,23.140
478,23.252
479,23.389
480,23.964
481,24.866
482,25.434
483,25.816
484,25.766
485,25.939
486,25.957
487,25.599
488,25.743
489,25.609
490,25.520
491,25.303
492,25.230
493,25.039
494,25.066
495,25.243
496,25.023
497,25.023
498,25.147
499,25.152
500,25.269
501,25.338
502,25.341
503,25.617
504,25.671
505,25.711
506,25.727
507,26.291
508,26.722
509,26.828
510,26.989
511,27.175
512,27.332
513,27.513
514,27.353
515,27.521
516,27.475
517,27.623
518,27.515
519,27.194
520,27.191
521,27.017
522,27.037
523,27.094
524,27.253
525,27.568
526,27.830
527,28.630
528,29.657
529,30.061
530,30.173
531,30.288
532,30.265
533,30.547
534,30.758
535,30.412
536,30.204
537,30.229
538,30.367
539,30.145
540,30.129
541,30.201
542,30.359
543,29.960
544,29.723
545,29.887
546,30.327
547,30.619
548,30.704
549,31.355
550,31.875
551,32.079
552,32.054
553,31.976
554,31.797
555,31.503
556,31.110
557,30.965
558,30.901
559,31.651
560,31.765
561,31.712
562,31.457
563,31.365
564,31.388
565,31.507
566,31.720
567,31.484
568,31.380
569,31.501
570,31.865
571,32.087
572,32.503
573,32.864
574,32.938
575,33.426
576,34.068
577,34.399
578,34.737
579,35.367
580,36.091
581,36.477
582,36.921
583,37.103
584,37.151
585,37.473
586,37.770
587,38.129
588,38.524
589,38.849
590,38.989
591,39.111
592,39.157
593,39.114
594,39.118
595,38.946
596,38.910
597,38.789
598,38.797
599,38.291
600,38.205
601,37.971
602,37.860
603,37.546
604,37.560
605,37.328
606,37.176
607,36.699
608,36.307
609,36.369
610,36.542
611,36.575
612,36.897
613,37.344
614,37.980
615,38.300
616,38.728
617,39.083
618,39.493
619,39.803
620,40.213
621,40.449
622,40.487
623,40.538
624,40.159
625,39.875
626,39.546
627,39.148
628,38.738
629,38.347
630,38.138
631,37.445
632,36.886
633,36.468
634,36.109
635,35.893
636,35.734
637,35.800
638,36.041
639,37.170
640,38.060
641,38.440
642,38.842
643,39.165
644,39.243
645,39.206
646,39.057
647,39.203
648,39.617
649,39.531
650,39.646
651,39.718
652,39.984
653,40.179
654,40.441
655,40.196
656,40.113
657,40.043
658,39.988
659,39.758
660,39.755
661,39.577
662,39.491
663,39.269
664,38.598
665,37.777
666,37.110
667,36.343
668,35.500
669,34.704
670,33.982
671,34.370
672,35.109
673,34.982
674,34.818
675,34.893
676,35.265
677,36.294
678,37.430
679,38.477
680,40.462
681,41.589
682,42.925
683,44.263
684,45.254
685,45.826
686,46.202
687,45.969
688,45.465
689,45.191
690,44.825
691,44.368
692,44.045
693,43.617
694,43.294
695,43.180
696,42.741
697,42.630
698,42.610
699,42.959
700,43.451
701,43.977
702,44.534
703,45.052
704,45.622
705,45.311
706,44.731
707,44.198
708,43.879
709,43.330
710,43.044
711,42.856
712,42.977
713,43.535
714,44.474
715,45.151
716,45.789
717,46.612
718,47.185
719,47.119
720,46.662
721,45.907
722,45.300
723,44.518
724,44.092
725,43.710
726,43.558
727,43.904
728,45.183
729,45.752
730,46.708
731,47.954
732,49.478
733,50.764
734,51.598
735,52.229
736,51.983
737,51.319
738,50.437
739,49.502
740,48.665
741,48.091
742,47.638
743,47.672
744,47.491
745,47.292
746,46.951
747,46.946
748,46.886
749,47.045
750,47.214
751,47.520
752,47.249
753,47.106
754,46.745
755,46.170
756,45.722
757,45.387
758,44.953
759,44.640
760,44.390
761,44.108
762,43.820
763,43.507
764,43.077
765,42.765
766,42.566
767,42.646
768,43.113
769,44.404
770,45.958
771,47.746
772,49.352
773,50.311
774,50.655
775,50.000
776,49.604
777,50.055
778,51.151
779,53.222
780,56.176
781,59.365
782,62.243
783,64.377
784,65.983
785,66.767
786,67.539
787,68.207
788,68.201
789,67.447
790,66.308
791,65.329
792,63.107
793,61.463
794,59.721
795,58.342
796,57.908
797,58.125
798,58.712
799,58.791
800,58.244
801,58.023
802,57.532
803,56.721
804,55.756
805,54.450
806,53.460
807,52.569
808,52.037
809,51.790
810,51.495
811,51.329
812,51.212
813,51.243
814,51.394
815,51.825
816,52.240
817,52.386
818,52.819
819,53.409
820,53.902
821,54.500
822,55.144
823,56.340
824,57.608
825,58.436
826,59.542
827,60.700
828,61.847
829,62.860
830,63.426
831,64.078
832,65.208
833,65.453
834,65.273
835,64.545
836,63.489
837,63.425
838,64.113
839,65.217
840,65.964
841,65.681
842,64.995
843,63.792
844,62.510
845,61.243
846,60.088
847,59.301
848,58.356
849,57.998
850,57.954
851,58.385
852,59.221
853,60.237
854,61.365
855,63.112
856,65.326
857,66.437
858,67.466
859,68.059
860,68.655
861,69.221
862,69.838
863,70.119
864,70.920
865,71.022
866,71.604
867,72.004
868,72.548
869,73.068
870,73.586
871,74.173
872,74.834
873,75.097
874,75.556
875,75.777
876,75.815
877,75.484
878,75.057
879,75.170
880,75.139
881,74.900
882,74.369
883,73.158
884,71.278
885,68.993
886,66.962
887,64.760
888,63.517
889,62.706
890,62.082
891,62.167
892,62.296
893,62.040
894,61.164
895,60.794
896,59.766
897,59.476
898,59.861
899,60.575
900,61.377
901,62.307
902,63.457
903,64.638
904,65.532
905,66.013
906,66.359
907,66.669
908,67.111
909,67.761
910,68.856
911,70.026
912,71.220
913,72.218
914,73.520
915,75.026
916,75.745
917,75.345
918,74.276
919,72.442
920,70.981
921,70.651
922,70.888
923,71.791
924,73.316
925,75.098
926,76.566
927,77.566
928,77.984
929,78.424
930,79.058
931,79.407
932,79.220
933,77.870
934,76.074
935,73.488
936,70.688
937,68.954
938,67.538
939,67.001
940,67.513
941,69.031
942,70.789
943,72.810
944,75.486
945,76.133
946,76.246
947,75.522
948,73.845
949,71.625
950,69.564
951,68.166
952,66.398
953,65.585
954,65.049
955,65.595
956,66.933
957,68.373
958,69.850
959,71.046
960,72.338
961,73.213
962,74.488
963,76.021
964,77.549
965,78.916
966,79.646
967,79.930
968,79.345
969,79.170
970,79.006
971,78.898
972,79.063
973,79.708
974,80.210
975,80.511
976,81.303
977,81.244
978,80.927
979,80.514
980,79.868
981,78.880
982,78.064
983,77.580
984,77.408
985,77.708
986,79.009
987,81.025
988,83.871
989,86.920
990,89.655
991,91.321
992,92.347
993,91.953
994,90.591
995,87.813
996,84.243
997,80.959
998,78.853
999,78.457
1000,79.091
1001,79.697
1002,80.535
1003,81.072
1004,81.363
1005,81.830
1006,82.320
1007,83.854
1008,86.662
1009,88.878
1010,91.234
1011,93.477
1012,95.007
1013,95.666
1014,95.899
1015,96.087
1016,96.666
1017,97.406
1018,98.099
1019,98.638
1020,98.459
1021,97.240
1022,95.463
1023,93.519
1024,89.595
1025,87.517
1026,86.212
1027,85.977
1028,87.034
1029,88.575
1030,89.676
1031,90.427
1032,91.770
1033,91.868
1034,91.803
1035,91.927
1036,91.982
1037,92.303
1038,92.753
1039,93.020
1040,93.129
1041,93.713
1042,94.325
1043,95.860
1044,97.976
1045,100.498
1046,103.146
1047,105.563
1048,108.997
1049,110.941
1050,113.048
1051,115.045
1052,116.859
1053,118.263
1054,119.065
1055,119.785
1056,120.080
1057,119.929
1058,119.385
1059,118.842
1060,118.208
1061,117.929
1062,118.145
1063,118.421
1064,119.269
1065,119.320
1066,119.257
1067,118.452
1068,117.302
1069,116.236
1070,115.428
1071,114.438
1072,113.090
1073,112.007
1074,110.910
1075,109.662
1076,107.975
1077,106.463
1078,105.062
1079,104.345
1080,104.298
1081,104.408
1082,104.908
1083,105.699
1084,106.479
1085,107.227
1086,107.991
1087,108.701
1088,109.322
1089,110.216
1090,111.160
1091,111.628
1092,112.157
1093,113.382
1094,115.381
1095,117.738
1096,121.475
1097,123.776
1098,126.315
1099,128.842
1100,132.030
1101,137.210
1102,143.202
1103,147.052
1104,149.860
1105,152.104
1106,153.360
1107,151.703
1108,146.942
1109,144.149
1110,147.236
1111,154.301
1112,163.775
1113,170.260
1114,171.429
1115,164.473
1116,154.398
1117,146.703
1118,142.232
1119,138.926
1120,135.233
1121,132.793
1122,129.651
1123,127.797
1124,126.572
1125,125.671
1126,124.551
1127,124.107
1128,124.418
1129,124.589
1130,124.362
1131,125.458
1132,131.290
1133,141.703
1134,150.750
1135,155.546
1136,156.741
1137,156.278
1138,157.252
1139,164.971
1140,181.712
1141,201.948
1142,218.218
1143,227.019
1144,233.458
1145,238.727
1146,245.049
1147,248.168
1148,248.481
1149,248.074
1150,248.732
1151,249.078
1152,249.621
1153,249.968
1154,250.506
1155,250.651
1156,250.272
1157,249.664
1158,248.924
1159,248.466
1160,248.946
1161,248.338
1162,248.666
1163,248.079
1164,245.630
1165,243.815
1166,241.869
1167,238.825
1168,232.804
1169,226.009
1170,219.198
1171,210.926
1172,200.434
1173,189.759
1174,177.523
1175,165.286
1176,152.363
1177,144.263
1178,136.281
1179,131.547
1180,128.461
1181,124.333
1182,120.116
1183,117.873
1184,118.335
1185,118.594
1186,119.015
1187,119.375
1188,120.010
1189,122.471
1190,126.803
1191,131.734
1192,137.604
1193,140.379
1194,140.218
1195,136.720
1196,133.174
1197,132.035
1198,131.220
1199,130.461
1200,130.094
1201,129.272
1202,131.476
1203,137.374
1204,145.223
1205,155.204
1206,163.297
1207,166.138
1208,163.567
1209,160.155
1210,155.498
1211,148.268
1212,138.238
1213,131.099
1214,127.510
1215,124.430
1216,120.631
1217,118.340
1218,117.313
1219,116.995
1220,116.824
1221,116.258
1222,114.693
1223,112.914
1224,111.139
1225,109.966
1226,108.484
1227,107.511
1228,106.809
1229,106.172
1230,105.360
1231,104.709
1232,103.891
1233,103.971
1234,104.243
1235,105.044
1236,106.177
1237,107.734
1238,109.418
1239,110.865
1240,113.622
1241,115.271
1242,117.250
1243,119.330
1244,121.244
1245,122.509
1246,123.302
1247,123.523
1248,123.345
1249,123.213
1250,123.324
1251,123.478
1252,123.637
1253,123.792
1254,123.917
1255,123.793
1256,123.114
1257,121.904
1258,120.414
1259,118.171
1260,115.871
1261,113.901
1262,112.275
1263,110.431
1264,106.548
1265,104.308
1266,102.492
1267,101.417
1268,100.907
1269,100.744
1270,100.635
1271,100.463
1272,100.183
1273,99.737
1274,98.423
1275,96.406
1276,94.055
1277,91.557
1278,89.060
1279,87.344
1280,85.978
1281,85.229
1282,84.339
1283,83.544
1284,83.196
1285,84.205
1286,86.288
1287,88.444
1288,93.032
1289,96.013
1290,99.335
1291,101.745
1292,102.747
1293,102.260
1294,101.180
1295,100.138
1296,97.558
1297,96.356
1298,96.131
1299,96.907
1300,98.791
1301,101.309
1302,104.055
1303,105.986
1304,106.062
1305,105.167
1306,103.046
1307,99.634
1308,95.464
1309,91.666
1310,89.264
1311,87.944
1312,88.095
1313,87.845
1314,86.130
1315,83.590
1316,80.624
1317,77.825
1318,76.038
1319,75.289
1320,76.377
1321,78.198
1322,79.908
1323,80.774
1324,79.813
1325,77.523
1326,74.810
1327,73.147
1328,71.613
1329,70.636
1330,70.564
1331,70.940
1332,72.055
1333,73.988
1334,75.968
1335,77.812
1336,81.153
1337,84.515
1338,87.507
1339,89.111
1340,89.122
1341,88.259
1342,87.437
1343,86.844
1344,85.474
1345,85.850
1346,87.088
1347,89.309
1348,91.892
1349,93.172
1350,92.929
1351,91.464
1352,87.937
1353,85.506
1354,83.474
1355,82.531
1356,82.905
1357,83.810
1358,84.319
1359,83.818
1360,81.593
1361,79.393
1362,76.708
1363,74.033
1364,72.491
1365,72.297
1366,73.384
1367,74.906
1368,78.390
1369,80.669
1370,82.255
1371,82.534
1372,80.986
1373,78.638
1374,76.218
1375,74.417
1376,72.353
1377,71.635
1378,71.230
1379,71.096
1380,71.846
1381,73.245
1382,75.141
1383,77.032
1384,79.581
1385,81.683
1386,83.762
1387,85.773
1388,86.799
1389,87.054
1390,86.135
1391,85.257
1392,83.568
1393,82.959
1394,81.539
1395,79.773
1396,77.570
1397,75.756
1398,75.004
1399,74.754
1400,75.181
1401,75.694
1402,75.488
1403,74.877
1404,73.733
1405,72.226
1406,70.465
1407,69.065
1408,66.715
1409,65.027
1410,63.942
1411,63.028
1412,62.846
1413,63.247
1414,63.964
1415,64.824
1416,65.417
1417,65.684
1418,65.643
1419,65.620
1420,66.202
1421,67.430
1422,69.218
1423,71.179
1424,73.936
1425,75.865
1426,76.685
1427,76.613
1428,75.950
1429,75.115
1430,74.812
1431,74.820
1432,74.516
1433,74.865
1434,76.630
1435,78.958
1436,81.278
1437,83.296
1438,84.493
1439,84.759
1440,83.522
1441,84.106
1442,85.487
1443,87.530
1444,89.655
1445,91.416
1446,92.074
1447,91.768
1448,88.741
1449,85.456
1450,81.299
1451,76.887
1452,72.958
1453,69.992
1454,67.872
1455,66.760
1456,65.961
1457,65.492
1458,64.330
1459,62.776
1460,61.182
1461,58.894
1462,56.423
1463,54.355
1464,52.784
1465,51.748
1466,51.723
1467,52.466
1468,53.729
1469,55.139
1470,57.345
1471,59.893
1472,63.434
1473,65.722
1474,67.674
1475,69.759
1476,71.717
1477,73.630
1478,75.455
1479,77.040
1480,78.524
1481,79.884
1482,81.245
1483,82.387
1484,83.170
1485,83.675
1486,84.218
1487,84.802
1488,85.582
1489,85.869
1490,85.902
1491,85.894
1492,85.838
1493,84.588
1494,81.839
1495,78.787
1496,73.573
1497,69.107
1498,64.090
1499,59.695
1500,56.744
1501,54.968
1502,53.724
1503,52.943
1504,52.769
1505,52.624
1506,53.594
1507,55.430
1508,57.887
1509,60.782
1510,63.066
1511,64.402
1512,64.462
1513,63.418
1514,60.993
1515,58.020
1516,55.196
1517,52.953
1518,51.625
1519,51.183
1520,51.946
1521,52.925
1522,54.733
1523,57.677
1524,61.360
1525,65.973
1526,70.574
1527,74.388
1528,78.593
1529,81.661
1530,84.113
1531,85.398
1532,86.251
1533,86.897
1534,86.376
1535,84.663
1536,81.871
1537,80.164
1538,79.110
1539,78.747
1540,79.210
1541,79.881
1542,80.234
1543,80.187
1544,78.717
1545,77.580
1546,75.246
1547,72.277
1548,69.608
1549,67.672
1550,66.561
1551,66.409
1552,68.268
1553,69.683
1554,70.402
1555,70.973
1556,70.976
1557,70.734
1558,70.723
1559,70.675
1560,71.257
1561,71.196
1562,70.500
1563,67.925
1564,63.983
1565,60.340
1566,57.758
1567,56.805
1568,56.609
1569,57.930
1570,60.500
1571,63.812
1572,67.142
1573,69.899
1574,71.924
1575,73.308
1576,73.475
1577,74.484
1578,74.757
1579,74.549
1580,74.288
1581,73.870
1582,72.584
1583,70.207
1584,66.712
1585,64.922
1586,65.112
1587,66.782
1588,69.861
1589,73.731
1590,77.115
1591,79.299
1592,80.108
1593,80.334
1594,79.438
1595,78.206
1596,76.326
1597,74.425
1598,72.778
1599,71.648
1600,71.058
1601,70.422
1602,70.227
1603,70.615
1604,71.142
1605,71.100
1606,70.323
1607,69.189
1608,67.379
1609,65.047
1610,62.291
1611,59.790
1612,57.920
1613,56.391
1614,55.291
1615,54.412
1616,53.474
1617,53.634
1618,54.324
1619,55.470
1620,57.350
1621,60.542
1622,64.956
1623,69.298
1624,75.146
1625,79.721
1626,82.597
1627,84.856
1628,85.740
1629,85.176
1630,84.012
1631,82.990
1632,81.070
1633,79.293
1634,78.152
1635,76.796
1636,75.021
1637,72.772
1638,70.184
1639,67.764
1640,65.021
1641,62.716
1642,60.561
1643,58.736
1644,58.005
1645,57.889
1646,57.621
1647,57.267
1648,56.020
1649,56.106
1650,55.951
1651,56.259
1652,56.947
1653,57.692
1654,57.826
1655,57.847
1656,57.385
1657,56.921
1658,56.772
1659,57.023
1660,57.938
1661,58.549
1662,58.352
1663,57.516
1664,57.232
1665,55.923
1666,54.610
1667,53.339
1668,52.386
1669,52.077
1670,53.565
1671,56.551
1672,62.112
1673,67.881
1674,72.553
1675,76.636
1676,78.972
1677,79.953
1678,79.937
1679,79.599
1680,78.308
1681,77.368
1682,75.935
1683,74.409
1684,72.839
1685,71.559
1686,70.281
1687,69.299
1688,67.894
1689,66.410
1690,65.075
1691,63.742
1692,62.804
1693,62.082
1694,61.770
1695,61.749
1696,63.288
1697,65.111
1698,65.046
1699,63.314
1700,60.309
1701,57.254
1702,55.128
1703,54.407
1704,54.960
1705,56.263
1706,57.769
1707,60.030
1708,61.994
1709,63.115
1710,62.915
1711,62.074
1712,60.460
1713,58.248
1714,58.534
1715,59.907
1716,61.849
1717,63.957
1718,65.566
1719,66.460
1720,67.243
1721,67.542
1722,68.598
1723,69.980
1724,71.844
1725,73.965
1726,75.887
1727,77.349
1728,77.768
1729,77.487
1730,77.101
1731,77.024
1732,77.709
1733,79.303
1734,81.329
1735,83.520
1736,85.702
1737,87.317
1738,87.757
1739,86.595
1740,84.281
1741,81.335
1742,77.213
1743,72.528
1744,67.196
1745,63.084
1746,60.686
1747,59.298
1748,59.021
1749,59.021
1750,58.459
1751,57.716
1752,56.332
1753,56.637
1754,56.626
1755,57.325
1756,58.431
1757,59.561
1758,59.989
1759,60.067
1760,59.422
1761,58.903
1762,58.326
1763,57.662
1764,56.849
1765,56.673
1766,57.254
1767,58.349
1768,59.919
1769,62.289
1770,64.570
1771,66.612
1772,68.290
1773,69.509
1774,70.297
1775,70.837
1776,72.451
1777,73.068
1778,73.255
1779,72.473
1780,70.976
1781,69.317
1782,68.014
1783,67.323
1784,66.833
1785,66.141
1786,65.897
1787,65.510
1788,65.108
1789,64.960
1790,64.585
1791,64.264
1792,63.708
1793,63.088
1794,62.141
1795,60.487
1796,58.675
1797,56.693
1798,55.321
1799,54.569
1800,54.663
1801,55.359
1802,56.032
1803,56.902
1804,57.613
1805,58.126
1806,58.486
1807,58.388
1808,57.111
1809,56.260
1810,55.114
1811,53.395
1812,51.197
1813,49.082
1814,48.025
1815,47.674
1816,47.867
1817,48.573
1818,48.779
1819,48.833
1820,48.784
1821,48.134
1822,47.480
1823,47.083
1824,47.147
1825,47.223
1826,47.500
1827,47.916
1828,48.099
1829,48.029
1830,46.740
1831,45.306
1832,42.980
1833,40.502
1834,38.922
1835,37.848
1836,37.763
1837,38.431
1838,39.177
1839,39.960
1840,40.768
1841,41.171
1842,42.256
1843,43.628
1844,44.974
1845,46.384
1846,47.441
1847,48.233
1848,48.660
1849,48.945
1850,48.991
1851,48.856
1852,48.613
1853,48.465
1854,48.380
1855,48.408
1856,48.473
1857,48.962
1858,48.799
1859,48.257
1860,47.434
1861,46.559
1862,45.738
1863,44.983
1864,44.399
1865,44.053
1866,43.699
1867,43.384
1868,43.221
1869,43.234
1870,43.713
1871,44.204
1872,45.279
1873,46.867
1874,48.677
1875,51.079
1876,53.641
1877,56.876
1878,59.973
1879,62.483
1880,63.895
1881,64.503
1882,64.145
1883,63.675
1884,63.463
1885,62.933
1886,62.415
1887,61.824
1888,61.704
1889,59.884
1890,59.042
1891,58.207
1892,57.195
1893,56.087
1894,54.457
1895,52.952
1896,50.818
1897,48.711
1898,47.142
1899,45.454
1900,44.089
1901,43.541
1902,43.347
1903,43.403
1904,44.018
1905,44.366
1906,45.103
1907,45.839
1908,46.470
1909,46.995
1910,47.306
1911,47.556
1912,46.815
1913,46.550
1914,46.021
1915,45.742
1916,45.697
1917,46.011
1918,46.621
1919,47.049
1920,47.513
1921,47.629
1922,47.299
1923,47.007
1924,46.847
1925,46.587
1926,46.745
1927,47.019
1928,48.265
1929,50.183
1930,51.490
1931,52.413
1932,52.623
1933,52.382
1934,52.203
1935,52.523
1936,52.468
1937,52.592
1938,52.687
1939,52.357
1940,51.636
1941,50.282
1942,48.892
1943,47.917
1944,47.140
1945,46.321
1946,45.583
1947,44.811
1948,43.809
1949,43.023
1950,42.621
1951,42.266
1952,41.422
1953,40.313
1954,40.280
1955,40.271
1956,40.344
1957,40.368
1958,40.457
1959,40.458
1960,40.206
1961,39.589
1962,38.578
1963,37.179
1964,35.737
1965,34.437
1966,33.832
1967,33.632
1968,33.547
1969,33.653
1970,33.985
1971,34.588
1972,35.322
1973,36.361
1974,37.447
1975,38.419
1976,39.083
1977,39.284
1978,39.666
1979,40.019
1980,40.294
1981,40.529
1982,40.854
1983,41.043
1984,41.525
1985,42.208
1986,42.023
1987,41.739
1988,41.304
1989,41.001
1990,40.871
1991,40.849
1992,41.087
1993,40.891
1994,40.608
1995,40.333
1996,40.225
1997,40.360
1998,40.685
1999,40.892
2000,40.897
2001,41.604
2002,41.333
2003,40.739
2004,40.141
2005,39.828
2006,39.801
2007,39.985
2008,40.150
2009,40.494
2010,40.821
2011,41.132
2012,41.319
2013,41.544
2014,41.573
2015,41.809
2016,40.707
2017,38.995
2018,38.094
2019,37.062
2020,35.859
2021,34.609
2022,33.685
2023,33.165
2024,33.413
2025,33.905
2026,33.752
2027,33.422
2028,33.003
2029,32.794
2030,32.327
2031,32.136
2032,31.959
2033,31.760
2034,31.381
2035,30.908
2036,30.695
2037,30.581
2038,30.702
2039,30.987
2040,31.447
2041,32.264
2042,33.493
2043,35.371
2044,37.201
2045,39.403
2046,41.376
2047,42.807
2048,43.593
2049,44.364
2050,43.410
2051,41.652
2052,39.565
2053,37.454
2054,35.644
2055,34.164
2056,33.144
2057,31.571
2058,30.633
2059,29.285
2060,27.974
2061,26.968
2062,26.226
2063,25.931
2064,25.409
2065,24.389
2066,24.444
2067,24.686
2068,24.915
2069,25.047
2070,25.156
2071,25.382
2072,25.957
2073,26.622
2074,26.732
2075,27.114
2076,27.674
2077,28.239
2078,28.615
2079,29.040
2080,29.555
2081,29.568
2082,29.596
2083,29.668
2084,29.732
2085,29.817
2086,29.970
2087,29.911
2088,29.717
2089,29.769
2090,29.480
2091,28.941
2092,28.778
2093,28.854
2094,28.531
2095,28.094
2096,28.129
2097,28.373
2098,28.238
2099,28.046
2100,27.775
2101,27.225
2102,27.027
2103,26.901
2104,26.557
2105,26.183
2106,26.155
2107,25.947
2108,25.533
2109,25.348
2110,24.735
2111,24.455
2112,24.095
2113,23.769
2114,23.694
2115,23.579
2116,23.303
2117,23.155
2118,23.037
2119,22.974
2120,22.713
2121,22.873
2122,22.728
2123,23.004
2124,22.885
2125,23.337
2126,23.528
2127,23.669
2128,23.874
2129,23.479
2130,23.296
2131,23.304
2132,23.413
2133,23.814
2134,23.878
2135,23.893
2136,24.052
2137,24.772
2138,24.994
2139,25.546
2140,25.990
2141,26.657
2142,27.143
2143,27.604
2144,28.105
2145,28.684
2146,28.948
2147,29.169
2148,29.681
2149,30.030
2150,30.430
2151,30.736
2152,30.398
2153,29.030
2154,28.321
2155,27.728
2156,26.785
2157,26.006
2158,25.249
2159,24.712
2160,24.290
2161,23.477
2162,23.471
2163,23.582
2164,23.724
2165,23.963
2166,24.237
2167,24.345
2168,24.521
2169,24.626
2170,24.699
2171,24.720
2172,24.861
2173,25.011
2174,25.212
2175,25.413
2176,25.572
2177,25.835
2178,25.546
2179,25.278
2180,24.814
2181,24.291
2182,23.786
2183,23.370
2184,22.933
2185,22.420
2186,22.373
2187,21.877
2188,21.686
2189,21.547
2190,21.537
2191,21.203
2192,20.957
2193,20.702
2194,20.310
2195,20.153
2196,19.817
2197,19.805
2198,20.015
2199,20.113
2200,20.111
2201,19.550
2202,19.457
2203,19.299
2204,19.313
2205,19.550
2206,19.915
2207,20.387
2208,20.459
2209,19.709
2210,19.643
2211,19.335
2212,19.029
2213,18.674
2214,18.337
2215,17.987
2216,17.881
2217,17.605
2218,17.790
2219,17.821
2220,18.404
2221,19.445
2222,20.431
2223,21.587
2224,22.317
2225,22.859
2226,22.535
2227,22.051
2228,21.342
2229,20.621
2230,19.938
2231,19.356
2232,19.121
2233,19.107
2234,19.125
2235,19.075
2236,19.257
2237,19.288
2238,19.417
2239,19.582
2240,19.631
2241,19.030
2242,19.030
2243,19.271
2244,19.504
2245,19.531
2246,19.769
2247,19.897
2248,19.927
2249,19.811
2250,19.682
2251,19.415
2252,19.425
2253,19.596
2254,19.932
2255,20.192
2256,20.446
2257,21.131
2258,21.171
2259,21.103
2260,21.098
2261,21.034
2262,20.973
2263,20.845
2264,20.720
2265,20.090
2266,19.982
2267,19.407
2268,19.175
2269,18.913
2270,18.749
2271,18.308
2272,18.135
2273,18.068
2274,18.042
2275,18.016
2276,17.841
2277,17.104
2278,16.850
2279,16.744
2280,16.569
2281,16.944
2282,17.144
2283,17.342
2284,17.427
2285,17.546
2286,17.612
2287,17.667
2288,17.687
2289,17.952
2290,17.945
2291,17.862
2292,17.754
2293,17.308
2294,17.192
2295,16.962
2296,16.806
2297,16.760
2298,16.793
2299,16.530
2300,16.430
2301,16.376
2302,16.329
2303,16.152
2304,16.173
2305,15.698
2306,15.590
2307,15.482
2308,15.462
2309,15.479
2310,15.523
2311,15.532
2312,15.497
2313,15.505
2314,16.213
2315,16.907
2316,17.610
2317,18.715
2318,19.423
