Distance_(pixels),Gray_Value
0,64.463
1,64.463
2,64.525
3,64.449
4,64.204
5,64.187
6,64.186
7,64.193
8,64.267
9,64.318
10,64.374
11,64.369
12,64.358
13,64.364
14,64.403
15,64.463
16,64.734
17,64.773
18,64.807
19,64.852
20,65.327
21,65.643
22,65.984
23,66.203
24,66.595
25,66.599
26,66.651
27,66.655
28,66.674
29,66.792
30,67.037
31,67.314
32,67.613
33,67.626
34,67.573
35,67.559
36,67.169
37,67.128
38,67.488
39,67.730
40,67.973
41,68.623
42,69.313
43,69.538
44,70.016
45,69.929
46,70.686
47,71.276
48,72.382
49,73.389
50,74.659
51,75.403
52,76.261
53,76.892
54,77.744
55,78.380
56,78.920
57,79.084
58,78.966
59,78.937
60,78.800
61,78.673
62,78.607
63,78.481
64,78.625
65,78.809
66,79.465
67,79.480
68,79.027
69,79.165
70,79.364
71,79.411
72,79.444
73,79.222
74,79.055
75,78.738
76,77.714
77,77.415
78,77.214
79,76.659
80,76.245
81,75.739
82,75.290
83,75.137
84,75.295
85,75.173
86,75.195
87,75.178
88,75.119
89,75.070
90,75.203
91,75.226
92,75.222
93,75.367
94,75.818
95,76.165
96,76.701
97,76.969
98,77.344
99,77.437
100,77.087
101,77.084
102,77.162
103,77.090
104,76.954
105,76.943
106,76.601
107,76.558
108,76.101
109,76.043
110,76.070
111,76.095
112,75.784
113,75.756
114,75.765
115,75.860
116,75.940
117,75.820
118,75.761
119,75.895
120,75.886
121,75.994
122,75.962
123,75.872
124,75.626
125,75.664
126,75.713
127,75.861
128,75.963
129,75.981
130,75.991
131,76.103
132,76.551
133,76.592
134,76.848
135,77.124
136,77.852
137,78.523
138,79.148
139,79.824
140,81.663
141,82.458
142,83.220
143,84.413
144,85.157
145,85.609
146,85.934
147,85.992
148,85.881
149,85.487
150,84.791
151,83.499
152,82.073
153,80.623
154,79.447
155,78.496
156,77.628
157,76.942
158,76.684
159,75.968
160,75.453
161,75.046
162,74.978
163,74.588
164,74.844
165,74.653
166,74.546
167,74.582
168,74.405
169,74.562
170,74.827
171,75.004
172,76.314
173,76.540
174,76.878
175,77.082
176,77.674
177,77.999
178,78.396
179,78.563
180,79.470
181,79.552
182,79.764
183,80.055
184,80.523
185,81.101
186,81.652
187,82.120
188,82.894
189,83.157
190,83.245
191,83.457
192,83.533
193,83.672
194,83.761
195,83.868
196,84.036
197,84.072
198,84.036
199,83.924
200,83.988
201,84.012
202,84.009
203,84.290
204,84.920
205,85.308
206,85.607
207,86.190
208,87.044
209,87.582
210,87.831
211,88.466
212,88.892
213,89.166
214,89.128
215,88.922
216,88.738
217,88.456
218,88.242
219,87.980
220,87.220
221,87.002
222,86.889
223,86.791
224,87.129
225,87.117
226,87.115
227,87.016
228,87.071
229,87.281
230,88.091
231,88.983
232,89.584
233,89.247
234,88.667
235,88.207
236,88.215
237,89.688
238,91.154
239,92.298
240,93.296
241,93.560
242,93.592
243,93.547
244,93.820
245,93.753
246,93.632
247,93.455
248,93.196
249,92.932
250,92.675
251,92.576
252,92.663
253,92.789
254,92.894
255,93.139
256,93.527
257,93.818
258,94.035
259,94.117
260,93.906
261,93.507
262,92.985
263,92.406
264,91.910
265,91.573
266,91.493
267,91.280
268,91.844
269,91.428
270,91.060
271,90.688
272,90.986
273,91.141
274,91.457
275,91.710
276,91.741
277,91.672
278,91.700
279,91.680
280,91.725
281,91.787
282,91.910
283,92.180
284,93.394
285,94.123
286,95.186
287,96.514
288,98.087
289,99.584
290,100.828
291,101.841
292,103.586
293,104.372
294,105.703
295,107.213
296,109.087
297,110.413
298,111.505
299,111.948
300,112.461
301,112.586
302,112.445
303,112.233
304,111.656
305,111.087
306,111.189
307,110.714
308,109.719
309,109.350
310,109.360
311,109.427
312,109.656
313,109.790
314,109.950
315,110.243
316,111.057
317,111.461
318,112.147
319,112.889
320,114.047
321,114.999
322,115.908
323,116.729
324,118.738
325,119.445
326,120.118
327,120.947
328,121.792
329,122.723
330,123.725
331,124.288
332,125.011
333,125.768
334,126.633
335,127.741
336,128.901
337,130.082
338,130.977
339,132.036
340,134.581
341,136.085
342,138.106
343,140.338
344,142.792
345,144.530
346,145.608
347,146.328
348,148.564
349,150.278
350,151.793
351,153.192
352,156.100
353,162.303
354,175.768
355,189.224
356,203.727
357,214.133
358,224.355
359,230.888
360,235.491
361,238.637
362,241.974
363,245.609
364,248.123
365,249.186
366,251.179
367,252.210
368,252.738
369,252.950
370,253.166
371,253.525
372,254.529
373,254.969
374,254.964
375,254.912
376,254.931
377,254.984
378,255.000
379,255.000
380,255.000
381,255.000
382,255.000
383,254.959
384,254.600
385,254.600
386,254.600
387,254.600
388,254.600
389,254.643
390,255.000
391,255.000
392,255.000
393,254.955
394,254.600
395,254.613
396,254.746
397,254.731
398,254.813
399,254.811
400,254.810
401,254.779
402,254.700
403,254.662
404,254.255
405,254.595
406,254.724
407,254.674
408,254.496
409,253.682
410,253.121
411,253.308
412,252.529
413,251.647
414,251.004
415,250.469
416,250.463
417,249.561
418,247.846
419,246.688
420,245.218
421,243.734
422,240.412
423,235.792
424,229.815
425,221.561
426,211.131
427,203.335
428,191.227
429,181.953
430,169.822
431,158.393
432,149.247
433,142.174
434,138.185
435,136.348
436,133.609
437,132.071
438,132.275
439,131.576
440,131.237
441,130.611
442,130.641
443,130.051
444,129.963
445,129.291
446,128.322
447,127.513
448,126.523
449,125.748
450,125.040
451,124.433
452,123.037
453,122.189
454,121.394
455,120.348
456,119.730
457,118.773
458,117.785
459,117.043
460,116.032
461,115.125
462,113.789
463,112.137
464,110.082
465,108.012
466,106.325
467,104.545
468,101.714
469,100.380
470,99.207
471,98.118
472,97.094
473,96.637
474,96.426
475,96.753
476,97.785
477,98.574
478,100.181
479,102.142
480,104.448
481,106.491
482,108.193
483,109.344
484,112.078
485,113.032
486,114.264
487,115.288
488,116.156
489,116.392
490,116.483
491,116.104
492,115.256
493,114.085
494,112.204
495,109.006
496,105.390
497,101.476
498,98.341
499,96.063
500,94.051
501,92.967
502,92.169
503,91.696
504,91.900
505,92.163
506,92.185
507,91.869
508,92.214
509,90.967
510,90.431
511,90.408
512,91.008
513,91.632
514,92.151
515,92.305
516,92.238
517,91.980
518,91.578
519,91.322
520,91.001
521,90.729
522,90.503
523,90.352
524,90.383
525,90.408
526,90.507
527,90.625
528,90.735
529,90.924
530,90.946
531,90.887
532,90.929
533,91.174
534,91.502
535,91.828
536,92.003
537,92.061
538,92.113
539,92.279
540,92.933
541,93.047
542,93.042
543,92.923
544,92.746
545,92.695
546,92.636
547,92.309
548,90.820
549,90.251
550,89.998
551,89.598
552,88.960
553,88.303
554,87.493
555,87.046
556,86.218
557,86.032
558,86.206
559,86.127
560,86.200
561,86.277
562,86.741
563,86.767
564,87.047
565,86.985
566,86.578
567,86.483
568,86.363
569,86.199
570,85.619
571,85.379
572,85.878
573,85.777
574,85.872
575,85.726
576,85.699
577,85.642
578,85.916
579,85.764
580,85.296
581,85.062
582,84.959
583,84.316
584,83.958
585,83.203
586,82.908
587,82.581
588,82.192
589,81.839
590,81.352
591,81.135
592,80.741
593,80.502
594,80.369
595,80.268
596,80.378
597,80.612
598,80.884
599,81.125
600,81.783
601,82.050
602,82.347
603,82.595
604,83.590
605,84.160
606,84.778
607,85.724
608,86.297
609,86.874
610,87.080
611,87.195
612,87.572
613,87.081
614,86.158
615,85.040
616,84.660
617,83.905
618,83.839
619,83.627
620,82.777
621,82.582
622,82.463
623,82.457
624,82.044
625,82.098
626,82.299
627,82.413
628,82.083
629,82.175
630,82.281
631,82.574
632,82.860
633,83.181
634,83.406
635,83.664
636,84.459
637,84.650
638,84.637
639,84.632
640,84.686
641,84.657
642,84.680
643,84.429
644,83.977
645,83.676
646,83.591
647,83.195
648,82.652
649,82.089
650,81.426
651,80.972
652,80.128
653,79.528
654,79.230
655,78.668
656,78.206
657,77.773
658,77.775
659,77.581
660,77.323
661,77.120
662,77.110
663,76.931
664,76.716
665,76.540
666,76.635
667,76.594
668,77.451
669,77.617
670,77.981
671,78.215
672,78.311
673,78.119
674,77.949
675,77.540
676,76.135
677,75.852
678,75.589
679,75.367
680,75.163
681,74.906
682,74.869
683,74.437
684,73.363
685,73.111
686,73.120
687,72.507
688,72.244
689,71.603
690,71.517
691,71.389
692,70.176
693,69.717
694,69.266
695,68.897
696,68.629
697,68.588
698,68.617
699,68.522
700,68.698
701,68.953
702,69.407
703,69.863
704,70.118
705,70.299
706,70.303
707,70.258
708,70.298
709,70.272
710,69.912
711,69.879
712,69.656
713,69.668
714,70.033
715,70.111
716,70.280
717,70.130
718,69.760
719,69.620
720,69.198
721,69.013
722,68.667
723,68.612
724,68.504
725,68.322
726,68.177
727,68.051
728,67.920
729,67.824
730,67.525
731,67.339
732,67.616
733,67.630
734,67.561
735,67.568
736,67.569
737,67.569
738,67.513
739,67.547
740,68.214
741,68.299
742,68.058
743,68.001
744,67.943
745,67.940
746,67.743
747,67.650
748,67.383
749,67.368
750,67.333
751,67.318
752,67.201
753,67.188
754,67.022
755,67.060
756,67.629
757,67.720
758,67.722
759,67.794
760,67.962
761,67.932
762,67.932
763,67.910
764,68.114
765,68.196
766,68.151
767,68.231
768,68.429
769,68.526
770,68.488
771,68.484
772,68.041
773,68.060
774,68.118
775,68.127
776,68.199
777,68.265
778,68.327
779,68.375
780,67.980
