Distance_(pixels),Gray_Value
0,57.264
1,55.994
2,55.837
3,55.179
4,54.339
5,54.860
6,55.318
7,55.178
8,55.296
9,56.023
10,56.355
11,54.523
12,54.412
13,55.010
14,55.704
15,55.555
16,54.911
17,54.393
18,54.251
19,54.174
20,54.221
21,53.309
22,52.446
23,51.198
24,51.517
25,50.499
26,50.262
27,49.945
28,50.566
29,50.738
30,51.152
31,51.138
32,49.896
33,49.980
34,49.953
35,49.719
36,49.394
37,49.211
38,49.005
39,48.856
40,48.774
41,48.396
42,48.345
43,48.577
44,49.259
45,49.525
46,49.816
47,49.789
48,50.772
49,50.343
50,50.269
51,50.064
52,50.631
53,51.591
54,52.172
55,51.900
56,52.030
57,51.875
58,52.387
59,52.855
60,53.210
61,53.538
62,54.130
63,55.038
64,56.351
65,58.417
66,59.667
67,60.579
68,60.439
69,60.456
70,61.818
71,60.878
72,61.644
73,62.000
74,61.257
75,60.722
76,60.295
77,59.828
78,59.689
79,59.867
80,59.623
81,59.192
82,59.253
83,59.558
84,59.608
85,60.573
86,62.006
87,62.170
88,62.490
89,63.047
90,64.896
91,65.442
92,64.252
93,64.202
94,64.796
95,63.966
96,62.767
97,62.125
98,62.612
99,62.967
100,63.088
101,62.516
102,62.177
103,61.688
104,61.948
105,61.882
106,62.121
107,61.791
108,61.594
109,61.336
110,61.479
111,61.564
112,61.363
113,60.887
114,60.934
115,61.243
116,62.125
117,62.752
118,62.602
119,61.990
120,61.942
121,61.550
122,61.446
123,61.349
124,61.266
125,61.188
126,61.534
127,61.662
128,61.262
129,60.649
130,60.013
131,60.098
132,59.867
133,59.146
134,58.288
135,57.793
136,58.209
137,58.262
138,57.147
139,56.279
140,56.283
141,56.076
142,55.221
143,54.182
144,54.052
145,53.945
146,53.891
147,53.673
148,54.114
149,54.392
150,55.705
151,56.283
152,56.377
153,56.524
154,57.398
155,58.074
156,57.857
157,57.459
158,58.272
159,58.988
160,60.781
161,62.525
162,61.968
163,62.279
164,62.558
165,61.780
166,61.988
167,61.293
168,61.493
169,61.827
170,61.695
171,61.281
172,60.948
173,60.917
174,60.737
175,61.050
176,61.887
177,61.921
178,61.890
179,62.292
180,62.499
181,62.601
182,63.113
183,63.103
184,62.632
185,62.311
186,62.297
187,62.306
188,61.905
189,61.596
190,61.307
191,61.287
192,61.142
193,61.431
194,61.647
195,61.481
196,61.767
197,61.895
198,62.464
199,63.492
200,64.272
201,64.072
202,64.125
203,63.798
204,63.041
205,62.808
206,62.927
207,62.579
208,62.266
209,62.675
210,62.850
211,62.861
212,62.528
213,62.470
214,62.271
215,61.961
216,61.991
217,62.467
218,62.832
219,63.163
220,63.079
221,62.803
222,62.649
223,62.447
224,62.898
225,63.133
226,63.009
227,63.123
228,63.812
229,64.561
230,64.260
231,63.408
232,63.262
233,63.972
234,63.855
235,63.944
236,64.562
237,64.398
238,63.817
239,62.075
240,60.717
241,60.123
242,59.992
243,60.734
244,61.978
245,63.518
246,64.741
247,65.516
248,65.357
249,65.910
250,66.496
251,65.835
252,64.215
253,63.303
254,63.520
255,64.033
256,65.319
257,66.269
258,65.601
259,63.703
260,62.452
261,62.716
262,63.363
263,64.156
264,65.247
265,65.813
266,66.103
267,66.494
268,66.739
269,66.519
270,66.655
271,66.897
272,66.623
273,66.400
274,66.389
275,66.166
276,66.014
277,66.182
278,66.385
279,66.694
280,66.961
281,67.000
282,67.137
283,67.714
284,68.651
285,69.266
286,69.562
287,69.650
288,69.591
289,69.599
290,69.385
291,68.781
292,68.404
293,68.478
294,68.821
295,68.775
296,69.016
297,69.612
298,69.895
299,69.971
300,70.336
301,71.130
302,71.989
303,72.331
304,71.869
305,71.257
306,70.676
307,69.659
308,68.577
309,67.839
310,67.364
311,66.881
312,66.222
313,65.184
314,64.934
315,65.221
316,65.033
317,64.712
318,64.817
319,65.370
320,65.306
321,64.696
322,64.797
323,65.003
324,65.606
325,66.363
326,65.883
327,65.058
328,64.845
329,64.725
330,64.807
331,64.394
332,64.001
333,64.026
334,64.668
335,65.336
336,65.969
337,67.269
338,67.417
339,67.278
340,67.883
341,67.756
342,67.928
343,68.284
344,68.329
345,68.691
346,68.944
347,69.455
348,69.937
349,70.362
350,70.899
351,71.448
352,71.738
353,72.059
354,72.842
355,73.870
356,74.984
357,75.681
358,76.094
359,76.485
360,76.863
361,77.294
362,77.353
363,77.260
364,77.006
365,76.810
366,76.701
367,76.692
368,76.929
369,77.532
370,77.513
371,77.643
372,77.776
373,78.123
374,78.595
375,78.963
376,79.252
377,79.146
378,79.441
379,80.027
380,79.904
381,79.734
382,79.959
383,79.821
384,79.098
385,78.708
386,78.391
387,78.153
388,77.985
389,77.579
390,77.097
391,76.712
392,76.971
393,76.853
394,76.317
395,76.296
396,76.150
397,76.348
398,76.220
399,75.436
400,74.643
401,74.564
402,74.603
403,74.688
404,74.586
405,74.131
406,73.849
407,73.678
408,73.449
409,72.986
410,72.840
411,72.391
412,71.869
413,71.375
414,71.469
415,71.539
416,71.342
417,70.951
418,70.698
419,70.463
420,70.210
421,70.208
422,70.357
423,70.293
424,70.346
425,70.856
426,71.402
427,72.566
428,74.366
429,76.007
430,76.486
431,76.459
432,76.641
433,76.649
434,76.152
435,75.926
436,76.345
437,77.004
438,77.536
439,77.707
440,78.008
441,79.351
442,80.487
443,81.272
444,81.358
445,81.804
446,81.921
447,82.156
448,81.963
449,82.368
450,82.468
451,83.360
452,84.374
453,84.898
454,84.895
455,84.958
456,85.130
457,85.313
458,85.327
459,85.275
460,85.071
461,85.245
462,85.479
463,86.459
464,86.570
465,86.878
466,86.980
467,86.838
468,86.417
469,86.327
470,86.025
471,85.593
472,84.887
473,84.620
474,84.355
475,84.127
476,83.621
477,83.954
478,83.481
479,83.333
480,83.515
481,83.535
482,83.150
483,82.773
484,82.520
485,82.564
486,81.944
487,80.311
488,78.709
489,76.094
490,74.211
491,72.659
492,72.184
493,72.007
494,72.132
495,72.136
496,72.394
497,72.203
498,72.089
499,72.039
500,71.264
501,70.423
502,70.193
503,70.189
504,69.870
505,69.777
506,69.676
507,69.746
508,69.629
509,69.145
510,68.958
511,69.017
512,68.688
513,67.992
514,67.914
515,68.042
516,68.095
517,69.109
518,70.089
519,71.669
520,73.187
521,73.724
522,74.930
523,76.382
524,77.348
525,79.348
526,80.856
527,82.673
528,83.443
529,83.756
530,84.006
531,83.981
532,84.319
533,85.285
534,85.794
535,86.716
536,86.827
537,87.819
538,88.221
539,88.149
540,88.443
541,88.762
542,90.072
543,91.869
544,93.043
545,93.573
546,93.531
547,93.720
548,93.432
549,93.763
550,93.657
551,93.108
552,93.022
553,93.143
554,93.703
555,93.761
556,93.279
557,94.269
558,94.955
559,96.062
560,96.191
561,96.494
562,97.234
563,98.253
564,98.992
565,99.171
566,98.569
567,97.737
568,96.270
569,95.069
570,94.100
571,93.671
572,92.599
573,91.195
574,90.155
575,88.914
576,87.191
577,85.327
578,84.769
579,84.537
580,83.520
581,82.723
582,82.367
583,81.321
584,80.183
585,79.296
586,79.341
587,78.256
588,77.229
589,76.490
590,75.417
591,74.687
592,73.542
593,72.596
594,71.562
595,70.698
596,70.414
597,69.871
598,69.411
599,68.720
600,68.005
601,67.522
602,67.981
603,68.007
604,68.632
605,69.084
606,70.015
607,71.227
608,72.465
609,73.710
610,75.741
611,77.891
612,79.803
613,80.814
614,82.752
615,85.273
616,87.001
617,89.379
618,91.597
619,93.677
620,93.894
621,93.437
622,93.267
623,94.346
624,94.918
625,95.927
626,97.188
627,99.389
628,100.836
629,102.229
630,102.799
631,102.975
632,102.577
633,103.472
634,103.956
635,104.632
636,105.080
637,105.544
638,105.851
639,106.401
640,106.504
641,106.283
642,106.266
643,106.404
644,106.496
645,106.781
646,107.468
647,108.602
648,109.121
649,109.496
650,109.496
651,109.442
652,109.064
653,109.470
654,109.165
655,109.174
656,109.055
657,108.234
658,108.040
659,108.107
660,108.462
661,108.536
662,108.349
663,109.223
664,109.856
665,110.162
666,109.516
667,108.856
668,108.176
669,107.824
670,108.275
671,108.384
672,107.021
673,106.223
674,104.812
675,103.788
676,103.189
677,102.125
678,100.864
679,99.444
680,97.647
681,96.105
682,94.093
683,92.195
684,90.179
685,86.988
686,84.895
687,83.039
688,80.897
689,79.376
690,76.887
691,75.494
692,73.834
693,72.741
694,72.523
695,71.119
696,70.638
697,70.508
698,71.255
699,72.207
700,73.082
701,74.284
702,77.057
703,80.058
704,82.085
705,83.885
706,85.993
707,88.202
708,89.942
709,92.117
710,94.765
711,97.003
712,98.750
713,100.493
714,101.640
715,103.049
716,104.890
717,106.320
718,106.802
719,107.769
720,108.743
721,109.317
722,110.484
723,111.923
724,112.950
725,114.112
726,114.748
727,115.390
728,115.435
729,116.123
730,116.769
731,117.855
732,118.372
733,118.856
734,119.273
735,119.632
736,119.966
737,120.268
738,120.174
739,120.353
740,120.183
741,120.197
742,120.181
743,120.252
744,120.239
745,121.024
746,121.775
747,122.289
748,122.637
749,123.095
750,123.322
751,123.434
752,123.220
753,123.558
754,123.316
755,122.521
756,121.540
757,121.513
758,121.342
759,121.696
760,121.926
761,122.115
762,122.227
763,122.047
764,121.417
765,120.585
766,119.735
767,119.096
768,118.508
769,117.802
770,117.077
771,116.313
772,115.810
773,115.677
774,115.383
775,115.261
776,114.931
777,114.881
778,114.266
779,113.577
780,112.919
781,112.002
782,111.287
783,110.714
784,110.524
785,110.329
786,109.609
787,109.426
788,109.662
789,109.786
790,110.315
791,111.141
792,111.653
793,111.581
794,112.186
795,113.420
796,114.429
797,115.474
798,116.150
799,116.820
800,117.887
801,119.743
802,121.525
803,122.483
804,123.725
805,125.657
806,127.462
807,129.009
808,130.065
809,131.934
810,133.955
811,137.344
812,139.688
813,144.075
814,157.200
815,177.946
816,196.519
817,206.978
818,211.545
819,215.768
820,218.796
821,218.962
822,222.547
823,229.969
824,235.749
825,237.478
826,233.212
827,227.928
828,226.438
829,230.982
830,235.814
831,238.255
832,238.565
833,238.825
834,240.435
835,241.877
836,243.875
837,245.955
838,246.802
839,247.625
840,248.334
841,248.292
842,247.052
843,247.581
844,248.744
845,248.866
846,249.406
847,249.993
848,250.432
849,250.626
850,250.246
851,250.338
852,250.623
853,250.684
854,251.105
855,251.859
856,252.255
857,252.233
858,252.311
859,252.103
860,251.682
861,251.593
862,251.800
863,251.655
864,251.791
865,252.291
866,252.633
867,252.677
868,252.445
869,252.553
870,252.498
871,252.137
872,252.172
873,252.070
874,251.931
875,251.954
876,252.353
877,252.799
878,252.871
879,252.881
880,252.830
881,252.974
882,253.215
883,253.233
884,253.182
885,252.813
886,252.238
887,251.967
888,251.937
889,251.869
890,251.859
891,251.758
892,252.072
893,252.648
894,252.467
895,251.831
896,251.480
897,252.248
898,252.654
899,251.896
900,251.335
901,250.654
902,250.070
903,249.670
904,249.636
905,249.644
906,250.687
907,251.485
908,250.239
909,249.758
910,250.093
911,249.583
912,249.411
913,249.784
914,249.319
915,248.526
916,248.478
917,248.507
918,247.397
919,245.871
920,245.770
921,246.563
922,247.007
923,246.404
924,243.736
925,241.433
926,240.542
927,240.302
928,241.934
929,242.668
930,240.101
931,235.665
932,230.743
933,228.093
934,227.849
935,228.169
936,227.669
937,224.759
938,218.895
939,211.639
940,206.563
941,205.772
942,205.650
943,200.189
944,185.827
945,165.773
946,147.977
947,139.619
948,137.941
949,138.150
950,136.474
951,134.329
952,131.485
953,128.880
954,127.653
955,126.094
956,124.534
957,122.888
958,121.147
959,119.030
960,116.934
961,115.135
962,113.593
963,112.235
964,111.166
965,109.612
966,107.947
967,106.359
968,105.172
969,104.545
970,103.864
971,103.070
972,103.072
973,103.252
974,103.531
975,104.180
976,105.054
977,105.843
978,106.937
979,108.109
980,109.869
981,112.048
982,113.755
983,114.648
984,115.195
985,115.638
986,115.801
987,116.051
988,116.488
989,117.420
990,118.502
991,119.101
992,119.379
993,119.755
994,120.280
995,120.413
996,120.324
997,120.152
998,119.913
999,119.751
1000,119.551
1001,119.526
1002,120.116
1003,120.602
1004,120.397
1005,119.906
1006,120.492
1007,120.076
1008,120.213
1009,120.387
1010,120.663
1011,120.710
1012,120.819
1013,120.736
1014,120.416
1015,119.924
1016,119.822
1017,119.980
1018,120.126
1019,119.457
1020,118.963
1021,118.458
1022,118.279
1023,118.046
1024,117.809
1025,117.177
1026,116.748
1027,116.168
1028,115.699
1029,114.981
1030,114.528
1031,114.137
1032,113.944
1033,113.413
1034,112.816
1035,111.742
1036,110.686
1037,109.138
1038,108.411
1039,107.126
1040,105.723
1041,104.132
1042,101.916
1043,100.157
1044,98.787
1045,97.097
1046,95.156
1047,93.531
1048,91.564
1049,88.983
1050,87.609
1051,85.879
1052,84.470
1053,82.531
1054,79.860
1055,76.520
1056,73.492
1057,71.404
1058,69.794
1059,68.813
1060,68.557
1061,67.843
1062,67.576
1063,68.905
1064,70.757
1065,72.194
1066,74.018
1067,75.049
1068,76.491
1069,78.302
1070,80.756
1071,83.424
1072,85.521
1073,86.921
1074,88.115
1075,89.528
1076,91.216
1077,92.333
1078,94.055
1079,96.043
1080,98.040
1081,99.411
1082,100.047
1083,100.686
1084,101.244
1085,102.258
1086,103.120
1087,103.804
1088,104.454
1089,105.123
1090,106.016
1091,106.252
1092,107.019
1093,107.528
1094,107.918
1095,108.073
1096,108.920
1097,109.294
1098,109.609
1099,110.261
1100,111.154
1101,111.854
1102,112.596
1103,112.128
1104,110.609
1105,109.080
1106,107.593
1107,107.169
1108,107.079
1109,106.767
1110,106.947
1111,107.179
1112,107.491
1113,107.286
1114,107.032
1115,106.823
1116,106.070
1117,105.260
1118,104.598
1119,104.236
1120,103.236
1121,102.818
1122,102.738
1123,102.315
1124,100.821
1125,99.209
1126,97.428
1127,96.238
1128,95.668
1129,95.321
1130,95.082
1131,94.874
1132,94.563
1133,93.688
1134,92.681
1135,91.306
1136,90.030
1137,89.547
1138,88.686
1139,87.831
1140,86.610
1141,85.239
1142,84.178
1143,82.887
1144,81.839
1145,80.536
1146,79.898
1147,77.449
1148,76.119
1149,75.617
1150,75.088
1151,73.828
1152,72.751
1153,72.780
1154,72.741
1155,72.962
1156,72.837
1157,72.755
1158,73.887
1159,75.099
1160,75.626
1161,77.000
1162,77.978
1163,78.728
1164,80.099
1165,80.903
1166,82.157
1167,82.408
1168,82.587
1169,83.866
1170,85.029
1171,85.135
1172,86.073
1173,86.756
1174,87.275
1175,87.915
1176,88.440
1177,89.395
1178,89.417
1179,90.560
1180,91.156
1181,91.344
1182,91.376
1183,91.819
1184,91.808
1185,91.461
1186,91.086
1187,90.930
1188,91.426
1189,91.370
1190,91.470
1191,92.137
1192,93.052
1193,93.328
1194,93.811
1195,94.130
1196,94.938
1197,95.281
1198,95.510
1199,95.808
1200,95.137
1201,94.452
1202,94.168
1203,93.210
1204,93.312
1205,92.924
1206,92.223
1207,92.083
1208,92.199
1209,91.882
1210,91.452
1211,91.538
1212,91.170
1213,90.181
1214,89.417
1215,88.968
1216,88.023
1217,86.470
1218,85.638
1219,84.528
1220,83.696
1221,83.180
1222,83.162
1223,83.108
1224,82.778
1225,81.962
1226,81.508
1227,80.077
1228,78.588
1229,77.681
1230,77.299
1231,76.525
1232,75.275
1233,75.196
1234,74.969
1235,74.351
1236,73.831
1237,72.881
1238,71.953
1239,70.656
1240,70.437
1241,70.318
1242,69.992
1243,70.438
1244,70.753
1245,71.362
1246,71.769
1247,71.651
1248,71.824
1249,72.341
1250,72.939
1251,72.846
1252,72.247
1253,70.712
1254,70.460
1255,71.343
1256,72.598
1257,72.960
1258,73.331
1259,75.039
1260,75.973
1261,75.506
1262,75.183
1263,75.100
1264,75.451
1265,75.681
1266,76.868
1267,78.101
1268,79.506
1269,80.637
1270,81.026
1271,81.184
1272,81.342
1273,81.356
1274,81.582
1275,81.550
1276,81.727
1277,81.516
1278,81.689
1279,81.626
1280,81.738
1281,81.736
1282,82.567
1283,82.752
1284,82.828
1285,83.190
1286,83.638
1287,84.391
1288,85.292
1289,85.895
1290,86.389
1291,86.524
1292,85.872
1293,85.285
1294,84.995
1295,84.790
1296,83.766
1297,82.887
1298,82.460
1299,81.587
1300,81.076
1301,81.408
1302,82.217
1303,82.420
1304,82.366
1305,82.184
1306,82.265
1307,81.640
1308,80.966
1309,80.685
1310,79.847
1311,79.438
1312,78.754
1313,77.981
1314,76.946
1315,76.293
1316,75.714
1317,74.520
1318,73.171
1319,72.066
1320,71.525
1321,71.343
1322,72.031
1323,73.226
1324,74.633
1325,75.101
1326,74.350
1327,74.232
1328,74.742
1329,75.414
1330,75.643
1331,75.327
1332,76.313
1333,75.933
1334,75.964
1335,75.808
1336,75.549
1337,75.674
1338,76.219
1339,75.793
1340,75.593
1341,75.747
1342,75.975
1343,76.084
1344,76.148
1345,76.127
1346,76.293
1347,74.954
1348,74.446
1349,73.260
1350,71.652
1351,72.049
1352,72.904
1353,73.339
1354,73.728
1355,74.130
1356,73.924
1357,73.275
1358,72.684
1359,72.601
1360,72.528
1361,72.472
1362,72.865
1363,72.870
1364,73.306
1365,73.599
1366,73.583
1367,74.275
1368,75.375
1369,75.322
1370,75.725
1371,76.182
1372,76.076
1373,75.989
1374,76.573
1375,76.717
1376,76.504
1377,76.665
1378,76.680
1379,76.705
1380,76.684
1381,76.673
1382,76.697
1383,76.407
1384,76.060
1385,76.165
1386,76.740
1387,76.595
1388,75.931
1389,75.252
1390,74.462
1391,74.295
1392,74.349
1393,74.020
1394,73.612
1395,73.420
1396,73.164
1397,72.965
1398,72.914
1399,72.710
1400,72.395
1401,72.495
1402,72.698
1403,72.520
1404,71.709
1405,70.935
1406,70.400
1407,71.307
1408,73.321
1409,75.069
1410,75.756
1411,74.471
1412,73.983
1413,75.007
1414,75.392
1415,75.017
1416,74.931
1417,75.083
1418,74.752
1419,75.026
1420,75.517
1421,75.179
1422,74.920
1423,75.412
1424,76.002
1425,75.805
1426,75.690
1427,75.730
1428,75.569
1429,75.085
1430,74.989
1431,75.140
1432,74.811
1433,74.589
1434,74.943
1435,74.702
1436,74.088
1437,73.579
1438,73.435
1439,73.250
1440,72.938
1441,72.709
1442,72.192
1443,72.344
1444,72.509
1445,71.812
1446,71.340
1447,71.078
1448,70.935
1449,71.024
1450,71.003
1451,71.355
1452,72.093
1453,72.290
1454,72.103
1455,72.179
1456,72.263
1457,72.001
1458,72.404
1459,72.067
1460,71.242
1461,71.116
1462,71.362
1463,71.720
1464,71.859
1465,72.046
1466,72.212
1467,71.995
1468,71.445
1469,71.612
1470,71.959
1471,71.729
1472,71.959
1473,72.694
1474,72.574
1475,71.715
1476,71.204
1477,71.004
1478,70.749
1479,71.354
1480,72.150
1481,71.792
1482,71.253
1483,71.489
1484,71.518
1485,71.363
1486,71.351
1487,70.831
1488,70.377
1489,70.427
1490,70.759
1491,70.600
1492,70.886
1493,71.376
1494,70.867
1495,70.609
1496,70.881
1497,71.409
1498,72.063
1499,72.024
1500,72.357
1501,72.949
1502,73.230
1503,73.628
1504,74.266
1505,74.238
1506,73.945
1507,73.491
1508,73.260
1509,73.271
1510,73.324
1511,73.087
1512,72.847
1513,72.629
1514,72.234
1515,72.559
1516,73.362
1517,73.177
1518,72.520
1519,73.172
1520,74.195
1521,74.465
1522,74.974
1523,75.118
1524,74.717
1525,74.473
1526,74.773
1527,74.956
1528,74.597
1529,74.282
1530,74.027
1531,73.919
1532,73.906
1533,73.669
1534,73.578
1535,74.072
1536,74.568
1537,74.621
1538,74.554
1539,74.807
1540,75.108
1541,75.484
1542,74.795
1543,74.719
1544,74.532
1545,73.849
1546,73.819
1547,73.839
1548,74.198
1549,74.503
1550,74.591
1551,74.870
1552,74.792
1553,74.476
1554,74.005
1555,74.105
1556,74.284
1557,74.507
1558,74.385
1559,74.101
1560,74.018
1561,73.736
1562,73.513
1563,73.887
1564,74.202
1565,73.444
1566,72.655
1567,72.677
1568,72.691
1569,73.384
1570,73.586
1571,73.174
1572,73.235
1573,72.801
1574,72.050
1575,71.515
1576,71.472
1577,71.475
1578,71.483
1579,71.912
1580,71.480
1581,70.143
1582,70.685
1583,70.018
1584,68.052
1585,67.891
1586,67.861
1587,67.568
1588,65.692
1589,65.127
1590,65.286
1591,64.766
1592,64.316
1593,63.699
1594,63.314
1595,63.419
1596,63.392
1597,63.636
1598,62.872
1599,63.287
1600,64.362
1601,64.428
1602,64.585
1603,64.932
1604,64.955
1605,64.395
1606,65.148
1607,66.932
1608,67.464
1609,67.378
1610,67.448
1611,67.707
1612,68.787
1613,68.845
1614,69.062
1615,69.709
1616,69.460
1617,69.290
1618,69.958
1619,70.169
1620,69.865
1621,70.421
1622,70.909
1623,70.703
1624,70.394
1625,70.512
1626,71.005
1627,71.662
1628,71.565
1629,71.202
1630,71.014
1631,71.694
1632,71.837
1633,72.245
1634,72.149
1635,72.294
1636,72.027
1637,71.877
1638,72.319
1639,72.985
1640,73.597
1641,73.635
1642,73.028
1643,72.002
1644,71.834
1645,71.561
1646,71.964
1647,72.659
1648,73.000
1649,72.343
1650,71.543
1651,70.882
1652,71.102
1653,71.331
1654,70.720
1655,70.047
1656,69.618
1657,69.365
1658,68.331
1659,67.774
1660,68.540
1661,68.438
1662,67.673
1663,67.406
1664,67.477
1665,67.181
1666,66.652
1667,66.301
1668,65.758
1669,66.053
1670,65.815
1671,65.455
1672,65.518
1673,65.989
1674,65.635
1675,65.354
1676,63.479
1677,63.076
1678,62.873
1679,61.492
1680,60.635
1681,60.120
1682,59.588
1683,60.561
1684,60.771
1685,60.531
1686,60.360
1687,60.885
1688,60.521
1689,60.105
1690,60.292
1691,60.674
1692,60.931
1693,61.065
1694,60.988
1695,60.079
1696,59.746
1697,60.106
1698,61.030
1699,61.128
1700,60.389
1701,60.356
1702,60.248
1703,59.544
1704,59.654
1705,60.075
1706,59.730
1707,61.486
1708,62.468
1709,62.778
1710,62.937
1711,64.020
1712,63.379
1713,63.043
1714,64.265
1715,62.965
1716,63.071
1717,63.168
1718,64.132
1719,65.019
1720,64.207
1721,63.682
1722,64.832
1723,65.360
1724,65.614
1725,65.596
1726,64.940
1727,64.845
1728,65.804
1729,65.567
1730,65.367
1731,64.826
1732,65.119
1733,65.139
1734,64.383
1735,63.135
1736,62.652
1737,62.668
1738,62.738
1739,63.380
1740,63.476
1741,63.600
1742,62.963
1743,63.015
1744,63.451
1745,64.134
1746,64.483
1747,64.246
1748,63.970
1749,64.808
1750,64.323
1751,63.380
1752,63.567
1753,63.365
1754,62.705
1755,62.106
1756,61.689
1757,61.573
1758,61.253
1759,60.452
1760,59.805
1761,59.575
1762,60.015
1763,60.161
1764,59.690
1765,59.022
1766,58.121
1767,55.494
1768,54.475
1769,54.697
1770,54.642
1771,54.443
