Distance_(pixels),Gray_Value
0,11.667
1,10.634
2,11.623
3,13.650
4,14.022
5,13.946
6,13.870
7,13.848
8,14.116
9,15.089
10,14.225
11,14.214
12,14.008
13,13.980
14,13.181
15,14.170
16,13.653
17,14.354
18,13.845
19,15.199
20,15.813
21,14.421
22,15.020
23,15.585
24,14.291
25,13.655
26,13.204
27,14.161
28,14.573
29,13.389
30,12.845
31,13.663
32,13.174
33,12.129
34,10.410
35,10.957
36,11.988
37,10.265
38,9.635
39,8.973
40,8.697
41,9.000
42,9.000
43,9.000
44,8.283
45,7.534
46,7.251
47,7.235
48,7.667
49,7.869
50,7.852
51,7.836
52,7.820
53,6.940
54,7.667
55,8.458
56,7.667
57,6.738
58,6.722
59,6.667
60,5.689
61,6.667
62,7.657
63,6.641
64,6.624
65,6.667
66,6.667
67,6.667
68,6.667
69,5.790
70,6.667
71,6.667
72,7.667
73,7.478
74,6.667
75,6.667
76,7.429
77,7.667
78,8.396
79,8.380
80,8.697
81,8.000
82,8.000
83,8.648
84,9.000
85,9.384
86,9.401
87,10.000
88,9.567
89,9.550
90,9.868
91,10.851
92,11.670
93,12.152
94,12.667
95,12.969
96,12.897
97,13.333
98,14.000
99,14.742
100,15.124
101,15.473
102,15.452
103,15.430
104,16.408
105,17.483
106,18.698
107,18.676
108,17.747
109,17.817
110,19.000
111,19.128
112,19.469
113,19.585
114,19.669
115,19.466
116,19.295
117,19.252
118,19.208
119,19.227
120,20.091
121,20.059
122,20.684
123,20.655
124,19.961
125,19.631
126,20.896
127,20.530
128,21.746
129,21.697
130,20.687
131,20.066
132,19.934
133,19.890
134,20.241
135,19.801
136,20.523
137,20.281
138,19.505
139,19.472
140,19.720
141,19.704
142,19.708
143,19.456
144,18.849
145,19.582
146,18.911
147,18.484
148,18.453
149,17.382
150,16.928
151,16.901
152,17.240
153,17.191
154,16.984
155,16.618
156,16.378
157,15.810
158,15.045
159,14.154
160,14.122
161,13.504
162,13.482
163,12.909
164,12.996
165,12.875
166,11.963
167,10.707
168,10.861
169,10.248
170,9.769
171,8.452
172,6.667
173,6.667
174,7.111
175,8.100
176,8.000
177,9.000
178,9.000
179,8.915
180,8.000
181,7.052
182,7.000
183,7.000
184,7.000
185,8.000
186,8.000
187,7.000
188,8.000
189,8.000
190,7.000
191,8.000
192,8.000
193,8.000
194,8.000
195,9.000
196,10.141
197,10.125
198,11.333
199,13.426
200,14.333
201,15.060
202,14.333
203,14.333
204,15.559
205,15.774
206,14.882
207,15.714
208,16.817
209,16.795
210,16.527
211,16.709
212,18.396
213,19.708
214,20.343
215,20.998
216,22.458
217,22.598
218,24.382
219,25.678
220,26.390
221,26.135
222,25.948
223,26.736
224,27.253
225,28.447
226,28.745
227,28.707
228,28.907
229,29.604
230,30.000
231,30.000
232,31.260
233,30.470
234,31.000
235,30.173
236,30.261
237,30.233
238,31.206
239,32.441
240,33.788
241,33.767
242,34.745
243,34.723
244,34.061
245,34.023
246,33.987
247,33.977
248,34.922
249,34.889
250,34.857
251,33.824
252,33.493
253,32.466
254,31.863
255,32.412
256,31.164
257,31.691
258,31.532
259,31.376
260,31.354
261,31.332
262,31.977
263,32.239
264,33.167
265,32.368
266,32.334
267,32.318
268,33.180
269,33.031
270,32.402
271,31.391
272,31.380
273,30.185
274,29.537
275,28.681
276,28.670
277,28.659
278,28.648
279,28.333
280,27.894
281,27.577
282,26.802
283,26.058
284,24.833
285,22.692
286,21.456
287,20.326
288,19.206
289,18.098
290,17.815
291,17.406
292,17.163
293,16.380
294,15.212
295,13.333
296,13.333
297,12.333
298,11.000
299,11.000
300,10.000
301,9.602
302,9.333
303,9.333
304,8.382
305,8.366
306,7.350
307,7.333
308,7.333
309,8.301
310,8.333
311,8.398
312,8.252
313,10.236
314,10.333
315,9.333
316,9.569
317,11.783
318,13.821
319,14.000
320,15.263
321,16.105
322,16.000
323,16.754
324,18.667
325,20.609
326,21.611
327,23.341
328,24.649
329,27.711
330,30.168
331,31.364
332,32.976
333,34.640
334,37.494
335,37.451
336,38.129
337,39.387
338,41.301
339,41.713
340,42.288
341,41.565
342,40.673
343,39.931
344,41.718
345,42.620
346,45.067
347,46.091
348,47.217
349,48.141
350,48.865
351,49.800
352,51.712
353,53.002
354,54.724
355,57.291
356,59.202
357,61.210
358,61.554
359,60.820
360,59.547
361,59.522
362,59.556
363,59.890
364,61.478
365,62.702
366,63.633
367,64.523
368,66.050
369,65.275
370,66.467
371,66.370
372,66.570
373,66.451
374,67.059
375,69.319
376,72.673
377,74.966
378,77.093
379,75.367
380,74.785
381,73.042
382,71.114
383,66.970
384,64.814
385,61.648
386,59.900
387,59.021
388,60.056
389,59.548
390,59.574
391,59.493
392,59.283
393,59.197
394,58.776
395,57.789
396,56.651
397,55.982
398,54.887
399,54.671
400,53.980
401,51.292
402,50.818
403,49.145
404,48.034
405,46.737
406,45.979
407,44.619
408,43.043
409,41.231
410,39.656
411,38.204
412,38.043
413,37.393
414,36.581
415,35.253
416,32.000
417,30.125
418,27.808
419,25.157
420,23.507
421,22.523
422,21.582
423,20.593
424,20.906
425,19.667
426,18.041
427,18.030
428,20.314
429,20.342
430,19.667
431,19.654
432,20.309
433,22.264
434,23.575
435,23.915
436,26.899
437,28.471
438,31.644
439,34.550
440,37.113
441,39.725
442,42.470
443,44.735
444,47.664
445,50.096
446,52.260
447,53.653
448,54.888
449,57.124
450,59.921
451,63.135
452,67.590
453,72.688
454,75.767
455,78.341
456,77.582
457,77.080
458,77.550
459,78.273
460,79.541
461,80.465
462,83.061
463,86.017
464,89.772
465,91.182
466,93.779
467,95.849
468,96.637
469,97.141
470,98.532
471,99.860
472,102.085
473,104.581
474,107.254
475,109.653
476,110.987
477,111.465
478,112.408
479,113.660
480,115.306
481,116.331
482,116.799
483,117.868
484,118.136
485,117.805
486,117.090
487,117.319
488,116.663
489,119.179
490,122.405
491,122.351
492,125.987
493,127.598
494,130.772
495,130.794
496,133.125
497,133.239
498,135.888
499,145.254
500,152.760
501,147.322
502,135.571
503,132.180
504,144.151
505,158.954
506,165.292
507,156.020
508,144.224
509,140.189
510,142.626
511,149.913
512,152.581
513,153.860
514,153.591
515,158.749
516,164.281
517,161.764
518,162.635
519,160.302
520,162.543
521,162.187
522,162.356
523,164.644
524,166.009
525,167.615
526,170.122
527,168.194
528,161.066
529,157.461
530,161.331
531,173.265
532,188.241
533,196.235
534,194.423
535,188.815
536,183.901
537,179.932
538,178.711
539,179.434
540,177.480
541,171.067
542,167.326
543,170.574
544,173.921
545,179.159
546,182.419
547,184.941
548,187.758
549,189.724
550,190.963
551,194.078
552,196.660
553,193.660
554,192.084
555,186.378
556,169.886
557,150.075
558,151.451
559,167.541
560,176.273
561,167.860
562,154.102
563,149.790
564,164.633
565,176.959
566,181.668
567,167.061
568,148.341
569,143.507
570,156.115
571,168.011
572,166.997
573,165.559
574,164.859
575,169.522
576,170.143
577,166.577
578,161.987
579,155.119
580,150.068
581,148.042
582,148.342
583,146.763
584,143.508
585,138.054
586,136.832
587,142.002
588,158.577
589,169.802
590,163.134
591,143.966
592,129.859
593,123.054
594,130.207
595,140.263
596,147.873
597,148.862
598,144.134
599,136.394
600,126.907
601,124.859
602,125.536
603,126.000
604,127.388
605,129.098
606,130.174
607,128.933
608,126.228
609,125.081
610,122.442
611,120.114
612,119.366
613,118.678
614,118.000
615,116.322
616,116.957
617,116.268
618,115.290
619,115.225
620,113.870
621,112.772
622,111.739
623,108.805
624,106.225
625,104.333
626,100.927
627,98.949
628,97.123
629,94.578
630,93.420
631,91.277
632,89.529
633,87.206
634,85.783
635,84.219
636,81.881
637,79.875
638,78.667
639,78.333
640,77.757
641,77.253
642,77.187
643,76.732
644,75.451
645,73.515
646,71.202
647,68.408
648,67.774
649,62.377
650,58.759
651,55.210
652,52.650
653,49.906
654,48.954
655,47.670
656,46.596
657,45.534
658,43.622
659,43.222
660,42.666
661,41.354
662,41.042
663,40.599
664,40.333
665,40.333
666,39.667
667,40.333
668,40.787
669,40.806
670,41.696
671,41.691
672,42.018
673,43.065
674,44.038
675,45.346
676,47.964
677,50.896
678,51.831
679,52.413
680,52.625
681,52.332
682,51.380
683,50.460
684,50.433
685,50.406
686,51.309
687,52.307
688,56.239
689,58.559
690,61.303
691,63.317
692,65.919
693,67.091
694,67.051
695,66.071
696,65.658
697,65.124
698,64.037
699,63.540
700,63.064
701,62.999
702,62.934
703,62.869
704,62.803
705,62.935
706,63.008
707,63.608
708,65.564
709,66.692
710,67.122
711,67.261
712,68.141
713,68.979
714,70.581
715,71.043
716,72.339
717,74.215
718,74.898
719,74.430
720,72.881
721,69.105
722,66.723
723,65.783
724,65.736
725,63.859
726,63.392
727,62.826
728,62.714
729,61.667
730,61.667
731,61.667
732,60.438
733,60.416
734,59.758
735,59.078
736,59.688
737,59.329
738,59.307
739,57.964
740,57.913
741,57.818
742,56.746
743,53.532
744,52.138
745,49.777
746,48.217
747,47.279
748,45.090
749,43.801
750,42.667
751,42.333
752,42.086
753,41.333
754,39.667
755,38.667
756,37.750
757,37.329
758,36.012
759,35.028
760,34.837
761,33.526
762,31.410
763,30.236
764,30.000
765,28.640
766,27.159
767,25.831
768,24.503
769,22.016
770,20.180
771,19.076
772,17.955
773,17.590
774,16.606
775,15.748
776,14.333
777,14.333
778,14.110
779,13.104
780,13.037
781,12.960
782,12.982
783,13.251
784,13.102
785,12.333
786,12.532
787,13.878
788,13.444
789,13.433
790,14.467
791,17.117
792,17.768
793,17.836
794,19.068
795,19.139
796,20.738
797,21.719
798,21.675
799,21.641
800,23.255
801,23.212
802,24.168
803,25.432
804,25.081
805,25.927
806,26.370
807,26.332
808,27.908
809,28.864
810,30.423
811,30.653
812,32.809
813,34.277
814,36.056
815,37.997
816,38.270
817,38.211
818,38.484
819,38.425
820,38.580
821,38.886
822,37.837
823,36.788
824,36.739
825,36.066
826,35.975
827,36.416
828,37.049
829,37.662
830,38.434
831,38.909
832,38.498
833,39.255
834,40.306
835,40.268
836,40.230
837,39.824
838,39.370
839,38.783
840,38.518
841,38.474
842,38.431
843,38.388
844,38.598
845,39.301
846,40.036
847,40.009
848,39.170
849,39.127
850,40.084
851,39.040
852,38.873
853,37.917
854,38.819
855,40.025
856,39.059
857,38.056
858,37.035
859,36.020
860,35.651
861,34.962
862,33.602
863,33.296
864,33.214
865,32.520
866,31.896
867,31.546
868,31.530
869,32.514
870,32.497
871,32.481
872,30.532
873,31.521
874,29.901
875,28.667
876,28.667
877,27.000
878,26.000
879,26.000
880,23.667
881,22.000
882,22.698
883,21.667
884,20.667
885,21.667
886,18.810
887,18.446
888,17.000
889,16.653
890,16.663
891,15.845
892,15.176
893,15.000
894,14.853
895,14.526
896,12.260
897,11.536
898,11.333
899,10.000
900,8.000
901,8.674
902,9.357
903,7.960
904,8.390
905,8.406
906,8.422
907,6.667
908,5.878
909,6.667
910,6.846
911,6.992
912,7.813
913,7.797
914,7.781
915,7.764
916,8.081
917,9.065
918,9.049
919,10.033
920,10.683
921,11.667
922,11.667
923,11.667
924,11.667
925,12.290
926,13.333
927,14.536
928,15.734
929,15.696
930,15.138
931,15.116
932,16.881
933,16.870
934,16.071
935,17.228
936,19.260
937,18.493
938,18.482
939,18.178
940,18.381
941,18.566
942,19.544
943,20.164
944,20.668
945,21.885
946,21.852
947,20.820
948,21.267
949,22.088
950,22.704
951,22.682
952,23.159
953,23.131
954,23.438
955,23.410
956,23.147
957,23.103
958,23.060
959,22.223
960,22.608
961,22.581
962,22.554
963,22.527
964,22.499
965,22.472
966,22.445
967,22.334
968,22.391
969,22.291
970,22.337
971,22.309
972,22.282
973,22.408
974,22.365
975,22.201
976,22.174
977,23.029
978,23.024
979,22.055
980,20.719
981,21.674
982,21.669
983,21.330
984,21.017
985,18.737
986,19.647
987,20.467
988,20.121
989,18.785
990,18.752
991,18.720
992,17.844
993,17.712
994,16.333
995,15.539
996,16.555
997,17.096
998,17.079
999,16.243
1000,16.238
1001,15.626
1002,13.695
1003,12.998
1004,12.333
1005,11.403
1006,11.435
1007,10.667
1008,9.084
1009,9.100
1010,9.116
1011,8.598
1012,7.149
1013,7.667
1014,7.667
1015,6.667
1016,7.214
1017,7.230
1018,7.246
1019,7.263
1020,7.667
1021,7.667
1022,7.312
1023,6.667
1024,5.989
1025,6.748
1026,6.087
1027,5.940
1028,6.667
1029,7.185
1030,6.442
1031,6.667
1032,7.667
1033,6.491
1034,4.667
1035,4.953
1036,5.540
1037,6.667
1038,6.572
1039,4.588
1040,4.667
1041,5.667
1042,6.637
1043,7.654
1044,6.670
1045,6.686
1046,6.738
1047,7.719
1048,8.667
1049,7.667
1050,7.566
1051,7.549
1052,9.599
1053,9.700
1054,9.834
1055,9.818
1056,9.603
1057,9.570
1058,9.537
1059,9.752
1060,11.403
1061,11.387
1062,11.370
1063,11.812
1064,12.456
1065,12.103
1066,12.333
1067,12.711
1068,13.333
1069,13.333
1070,13.618
1071,12.295
1072,13.568
1073,12.841
1074,12.836
1075,12.831
1076,12.809
1077,12.946
1078,12.924
1079,12.902
1080,13.291
1081,12.122
1082,12.215
1083,13.056
1084,13.794
1085,12.662
1086,12.750
1087,12.630
1088,11.707
1089,11.597
1090,12.663
1091,12.565
1092,12.548
1093,12.532
1094,12.333
1095,12.333
1096,11.667
1097,11.667
1098,10.784
1099,11.667
1100,11.667
1101,11.356
1102,11.615
1103,11.345
1104,12.333
1105,11.333
1106,10.316
1107,8.971
1108,8.954
1109,9.000
1110,9.000
1111,9.000
1112,10.668
1113,9.704
1114,8.809
1115,7.787
1116,6.667
1117,7.474
1118,7.667
1119,7.442
1120,7.426
1121,7.409
1122,7.211
1123,7.183
1124,6.694
1125,6.678
1126,6.000
1127,6.000
1128,6.000
1129,6.000
1130,6.000
1131,5.420
1132,5.000
1133,6.000
1134,7.354
1135,5.828
1136,6.168
1137,6.667
1138,6.667
1139,7.116
1140,6.100
1141,5.667
1142,5.667
1143,5.667
1144,5.667
1145,6.315
1146,6.996
1147,6.028
1148,5.364
1149,5.380
1150,6.396
1151,7.667
1152,7.667
1153,6.667
1154,7.461
1155,7.667
1156,7.000
1157,6.000
1158,5.000
1159,5.000
1160,6.000
1161,6.000
1162,5.075
1163,4.059
1164,4.042
1165,4.026
1166,5.010
1167,5.000
1168,4.000
1169,4.000
1170,5.000
1171,6.928
1172,7.000
1173,7.000
1174,7.000
1175,7.863
1176,7.000
1177,6.831
1178,8.481
1179,8.465
1180,7.448
1181,7.667
1182,8.416
1183,7.667
1184,8.383
1185,7.667
1186,7.667
1187,7.667
1188,7.667
1189,7.302
1190,7.286
1191,7.667
1192,8.253
1193,8.667
1194,8.667
1195,8.129
1196,7.667
1197,7.667
1198,8.178
1199,8.667
1200,8.211
1201,7.667
1202,7.667
1203,8.260
1204,8.276
1205,8.292
1206,8.308
1207,8.325
1208,9.015
1209,8.357
1210,7.374
1211,7.667
1212,8.667
1213,8.667
1214,7.895
1215,6.878
1216,7.667
1217,7.667
1218,7.667
1219,6.667
1220,7.536
1221,7.667
1222,7.667
1223,7.585
1224,7.667
1225,6.716
1226,6.699
1227,6.683
1228,6.667
