Distance_(pixels),Gray_Value
0,47.938
1,46.606
2,46.423
3,46.779
4,46.256
5,45.314
6,44.327
7,42.496
8,41.112
9,40.717
10,40.349
11,40.826
12,40.365
13,40.380
14,41.675
15,43.229
16,43.650
17,44.042
18,43.987
19,44.963
20,45.863
21,45.934
22,45.805
23,45.225
24,45.223
25,44.474
26,44.031
27,43.503
28,42.396
29,41.937
30,41.008
31,40.322
32,40.372
33,40.101
34,40.583
35,42.800
36,44.794
37,45.047
38,44.847
39,46.265
40,45.002
41,44.610
42,44.584
43,45.202
44,44.780
45,44.313
46,44.342
47,45.290
48,45.021
49,44.887
50,45.403
51,45.370
52,45.593
53,45.749
54,45.491
55,43.989
56,45.130
57,43.711
58,43.493
59,43.876
60,44.495
61,45.678
62,46.248
63,45.503
64,45.707
65,46.745
66,46.809
67,46.220
68,47.107
69,46.607
70,46.537
71,48.057
72,49.539
73,50.770
74,51.450
75,51.810
76,52.664
77,53.483
78,54.623
79,54.599
80,55.741
81,55.144
82,52.914
83,49.084
84,44.746
85,40.142
86,37.256
87,35.769
88,34.964
89,35.415
90,37.717
91,43.084
92,48.237
93,50.932
94,51.369
95,50.777
96,48.964
97,48.962
98,49.084
99,48.253
100,45.821
101,42.803
102,41.360
103,40.867
104,40.988
105,42.192
106,42.943
107,42.451
108,43.407
109,44.404
110,44.565
111,44.292
112,44.175
113,43.632
114,43.425
115,43.620
116,43.450
117,41.767
118,40.363
119,40.129
120,41.331
121,43.204
122,45.262
123,45.781
124,44.941
125,43.579
126,43.554
127,42.240
128,41.347
129,39.607
130,41.284
131,42.827
132,43.168
133,43.681
134,44.840
135,47.464
136,48.281
137,49.669
138,52.462
139,54.950
140,58.032
141,60.320
142,62.030
143,62.585
144,62.802
145,63.380
146,63.964
147,64.935
148,67.181
149,68.578
150,68.365
151,65.664
152,62.380
153,59.616
154,58.389
155,58.072
156,58.223
157,58.825
158,59.811
159,59.276
160,58.392
161,57.534
162,56.288
163,55.099
164,54.029
165,52.298
166,51.329
167,50.044
168,50.381
169,49.758
170,48.627
171,47.847
172,47.334
173,47.477
174,47.675
175,48.219
176,48.723
177,48.901
178,49.300
179,49.974
180,50.561
181,51.392
182,51.798
183,51.264
184,50.729
185,50.157
186,49.952
187,49.722
188,49.761
189,50.216
190,50.612
191,51.058
192,49.991
193,49.892
194,49.644
195,48.763
196,47.844
197,47.073
198,45.998
199,45.079
200,44.593
201,44.224
202,44.978
203,44.686
204,44.049
205,45.825
206,48.126
207,51.732
208,57.560
209,61.538
210,66.551
211,67.210
212,68.264
213,68.975
214,69.235
215,71.738
216,73.725
217,74.455
218,75.335
219,74.628
220,70.003
221,64.845
222,59.381
223,55.124
224,52.967
225,51.424
226,51.471
227,51.619
228,51.744
229,52.506
230,53.068
231,52.321
232,51.669
233,52.293
234,53.263
235,54.376
236,55.291
237,56.163
238,56.533
239,57.072
240,57.800
241,57.906
242,60.707
243,64.600
244,69.892
245,75.141
246,79.792
247,80.477
248,78.442
249,76.418
250,73.552
251,71.080
252,70.039
253,69.667
254,70.373
255,71.298
256,71.809
257,72.834
258,72.164
259,71.172
260,70.352
261,69.863
262,69.299
263,69.389
264,69.763
265,71.744
266,73.306
267,73.476
268,74.690
269,78.982
270,83.111
271,85.052
272,84.869
273,83.514
274,81.265
275,80.080
276,81.431
277,86.268
278,93.104
279,97.294
280,97.345
281,93.537
282,86.760
283,81.288
284,78.781
285,78.474
286,80.783
287,82.957
288,82.791
289,81.011
290,77.369
291,75.515
292,76.613
293,77.275
294,78.089
295,80.047
296,81.837
297,79.977
298,76.388
299,73.392
300,71.656
301,70.321
302,72.829
303,76.692
304,81.833
305,85.882
306,88.444
307,87.804
308,86.518
309,84.939
310,82.664
311,80.705
312,78.819
313,76.056
314,74.169
315,73.341
316,73.432
317,76.890
318,82.809
319,87.353
320,90.239
321,90.526
322,88.935
323,85.702
324,81.968
325,78.424
326,76.345
327,75.149
328,73.648
329,73.012
330,72.685
331,72.591
332,72.100
333,71.787
334,74.198
335,76.779
336,79.430
337,81.361
338,81.295
339,80.293
340,81.189
341,83.716
342,87.463
343,89.638
344,88.906
345,88.030
346,88.897
347,91.770
348,95.345
349,96.319
350,94.301
351,92.802
352,92.278
353,95.080
354,101.587
355,107.125
356,109.851
357,111.510
358,112.229
359,110.653
360,106.910
361,103.762
362,101.918
363,102.407
364,103.916
365,105.935
366,108.376
367,109.834
368,110.890
369,111.578
370,112.689
371,113.509
372,114.724
373,115.436
374,115.526
375,116.169
376,115.781
377,116.067
378,116.713
379,117.450
380,118.313
381,118.948
382,118.681
383,118.320
384,117.942
385,117.949
386,118.783
387,118.869
388,118.835
389,118.601
390,117.815
391,116.972
392,114.915
393,113.602
394,113.383
395,113.767
396,114.804
397,115.527
398,115.940
399,116.025
400,115.089
401,116.349
402,118.018
403,119.962
404,122.365
405,124.300
406,125.823
407,126.468
408,126.732
409,126.216
410,127.632
411,130.288
412,133.444
413,135.689
414,136.672
415,136.478
416,138.081
417,141.028
418,146.763
419,154.865
420,154.971
421,146.498
422,134.859
423,131.833
424,137.448
425,145.956
426,154.150
427,160.126
428,164.276
429,169.627
430,175.491
431,180.047
432,176.293
433,166.701
434,154.286
435,145.391
436,139.018
437,134.745
438,131.974
439,133.887
440,134.660
441,133.746
442,131.511
443,127.597
444,122.705
445,119.978
446,119.875
447,118.903
448,118.587
449,117.432
450,116.045
451,115.372
452,114.608
453,114.510
454,114.075
455,113.327
456,113.066
457,112.459
458,113.683
459,113.827
460,112.674
461,111.943
462,110.585
463,108.754
464,108.402
465,109.008
466,110.041
467,112.276
468,115.180
469,118.328
470,120.603
471,122.753
472,123.369
473,123.814
474,123.529
475,121.951
476,119.839
477,117.766
478,116.965
479,116.586
480,116.707
481,117.878
482,119.289
483,119.155
484,118.493
485,117.278
486,115.931
487,113.550
488,112.236
489,110.643
490,108.504
491,105.163
492,100.612
493,97.249
494,95.167
495,94.907
496,95.430
497,97.670
498,100.309
499,100.989
500,100.732
501,99.425
502,98.964
503,96.690
504,95.638
505,94.350
506,93.589
507,93.766
508,93.161
509,92.286
510,91.714
511,91.745
512,92.895
513,93.622
514,94.047
515,92.854
516,92.608
517,92.089
518,90.374
519,87.549
520,83.768
521,81.895
522,80.192
523,80.103
524,82.946
525,84.509
526,84.765
527,84.341
528,82.786
529,81.048
530,77.551
531,74.599
532,73.127
533,73.026
534,73.672
535,75.108
536,75.377
537,73.707
538,70.311
539,65.917
540,62.751
541,62.335
542,63.679
543,65.225
544,71.270
545,78.610
546,87.995
547,93.554
548,96.765
549,96.636
550,92.310
551,85.857
552,76.960
553,71.524
554,69.497
555,69.973
556,70.571
557,71.847
558,74.572
559,75.902
560,76.978
561,77.705
562,77.343
563,76.238
564,75.180
565,74.383
566,72.744
567,72.194
568,73.107
569,74.305
570,75.331
571,76.395
572,76.651
573,73.561
574,71.789
575,67.519
576,64.224
577,62.568
578,61.603
579,61.453
580,61.858
581,63.528
582,66.444
583,70.161
584,74.438
585,78.154
586,81.802
587,84.258
588,86.207
589,89.299
590,92.006
591,93.335
592,93.714
593,93.508
594,92.755
595,91.528
596,89.267
597,86.721
598,83.803
599,81.451
600,79.632
601,76.633
602,73.842
603,72.070
604,67.353
605,62.972
606,61.128
607,57.487
608,55.206
609,53.439
610,52.600
611,51.679
612,51.681
613,53.541
614,55.107
615,55.151
616,56.327
617,55.550
618,54.660
619,53.615
620,53.374
621,52.202
622,51.266
623,50.751
624,50.051
625,49.112
626,47.731
627,47.039
628,45.933
629,45.844
630,46.834
631,48.160
632,49.372
633,50.677
634,50.813
635,50.448
636,51.994
637,52.964
638,54.167
639,56.169
640,58.856
641,59.921
642,61.670
643,63.156
644,65.655
645,66.518
646,66.930
647,66.629
648,65.816
649,65.143
650,64.451
651,63.620
652,62.888
653,62.265
654,61.181
655,60.329
656,59.101
657,59.075
658,56.855
659,54.446
660,53.281
661,52.512
662,51.958
663,51.904
664,52.505
665,52.035
666,51.801
667,51.575
668,52.154
669,53.190
670,54.864
671,55.236
672,56.218
673,56.932
674,58.129
675,59.309
676,60.162
677,59.684
678,59.855
679,60.076
680,59.287
681,58.343
682,58.334
683,58.585
684,59.076
685,58.847
686,59.007
687,59.013
688,60.825
689,62.098
690,65.026
691,67.611
692,70.513
693,72.987
694,74.116
695,74.045
696,73.104
697,72.055
698,71.324
699,69.982
700,68.315
701,66.702
702,65.281
703,64.029
704,62.539
705,61.108
706,58.788
707,56.582
708,54.654
709,54.679
710,54.770
711,55.116
712,54.729
713,54.543
714,54.766
715,54.593
716,54.990
717,55.811
718,56.515
719,57.023
720,57.171
721,57.096
722,56.942
723,56.127
724,55.761
725,55.660
726,56.119
727,56.239
728,56.654
729,57.609
730,58.164
731,57.657
732,57.567
733,58.249
734,59.047
735,59.562
736,58.769
737,58.250
738,57.716
739,56.739
740,55.165
741,54.433
742,53.676
743,53.696
744,52.588
745,51.892
746,52.260
747,52.987
748,53.286
749,53.324
750,53.310
751,53.073
752,52.382
753,51.678
754,51.736
755,52.171
756,51.859
757,51.364
758,51.359
759,51.827
760,51.751
761,52.007
762,52.404
763,51.694
764,51.498
765,51.425
766,50.852
767,50.206
768,49.598
769,47.540
770,47.749
771,48.354
772,47.856
773,47.176
774,47.133
775,47.365
776,46.887
777,46.634
778,46.682
779,46.907
780,46.252
781,47.145
782,48.750
783,49.106
784,49.306
785,48.668
786,50.029
787,50.042
788,51.904
789,53.894
790,54.258
791,56.551
792,57.283
793,59.696
794,62.303
795,62.581
796,61.870
797,61.610
798,61.550
799,60.533
800,59.538
801,59.241
802,59.001
803,58.571
804,57.733
805,57.679
806,57.942
807,57.568
808,57.173
809,56.574
810,57.471
811,59.348
812,60.018
813,59.634
814,58.246
815,56.973
816,56.981
817,55.443
818,54.224
819,53.811
820,51.726
821,51.190
822,51.524
823,52.099
824,49.737
825,50.322
826,50.217
827,50.325
828,49.422
829,48.671
830,48.429
831,48.997
832,48.746
833,48.909
834,48.600
835,48.416
836,48.606
837,49.544
838,49.840
839,50.634
840,50.925
841,51.865
842,51.917
843,51.447
844,51.424
845,51.417
846,51.176
847,51.152
848,51.136
849,51.157
850,51.456
851,51.945
852,51.665
853,51.213
854,51.467
855,52.150
856,51.518
857,51.579
858,51.914
859,51.447
860,50.880
861,50.068
862,50.391
863,50.860
864,51.815
865,52.550
866,52.105
867,51.258
868,51.373
