Distance_(pixels),Gray_Value
0,48.492
1,48.278
2,48.121
3,47.886
4,47.612
5,47.457
6,47.347
7,47.344
8,47.379
9,47.347
10,47.174
11,47.127
12,47.143
13,47.145
14,47.200
15,47.274
16,47.253
17,47.368
18,47.469
19,47.589
20,47.706
21,47.823
22,47.932
23,48.073
24,48.155
25,48.330
26,48.580
27,48.837
28,49.178
29,49.689
30,50.041
31,50.487
32,50.932
33,51.432
34,52.093
35,52.550
36,52.988
37,53.668
38,54.069
39,54.371
40,54.733
41,54.906
42,54.905
43,55.070
44,55.124
45,55.119
46,55.175
47,55.229
48,55.285
49,55.395
50,55.496
51,55.703
52,56.069
53,56.388
54,56.692
55,56.986
56,57.277
57,57.582
58,57.845
59,58.138
60,58.238
61,58.223
62,58.324
63,58.404
64,58.391
65,58.336
66,58.230
67,58.053
68,57.904
69,57.853
70,57.709
71,57.535
72,57.401
73,57.211
74,57.176
75,57.147
76,57.144
77,57.233
78,57.083
79,57.104
80,57.131
81,57.212
82,57.155
83,57.285
84,57.221
85,57.132
86,56.994
87,56.989
88,56.816
89,56.664
90,56.459
91,56.289
92,56.225
93,56.133
94,56.029
95,55.855
96,55.895
97,55.786
98,55.726
99,55.782
100,55.635
101,55.603
102,55.486
103,55.296
104,55.036
105,54.799
106,54.560
107,54.132
108,53.754
109,53.392
110,53.034
111,52.661
112,52.346
113,52.190
114,52.095
115,52.028
116,52.085
117,52.261
118,52.445
119,52.830
120,53.181
121,53.600
122,53.951
123,54.370
124,54.708
125,55.080
126,55.549
127,55.818
128,56.214
129,56.516
130,56.842
131,57.168
132,57.382
133,57.511
134,57.666
135,57.744
136,57.755
137,58.008
138,57.957
139,58.035
140,58.089
141,58.103
142,58.139
143,58.241
144,58.313
145,58.385
146,58.438
147,58.587
148,58.694
149,58.796
150,58.938
151,59.159
152,59.265
153,59.344
154,59.462
155,59.527
156,59.626
157,59.596
158,59.617
159,59.667
160,59.718
161,59.684
162,59.755
163,59.869
164,59.971
165,59.916
166,59.902
167,59.925
168,59.880
169,59.958
170,60.033
171,59.920
172,59.648
173,59.472
174,59.233
175,58.958
176,58.706
177,58.546
178,58.399
179,58.248
180,58.191
181,58.026
182,57.920
183,57.899
184,57.891
185,58.035
186,58.129
187,58.271
188,58.496
189,58.624
190,58.766
191,58.936
192,59.019
193,59.149
194,59.293
195,59.417
196,59.404
197,59.389
198,59.389
199,59.351
200,59.220
201,59.087
202,58.981
203,58.945
204,58.818
205,58.668
206,58.549
207,58.494
208,58.502
209,58.549
210,58.554
211,58.603
212,58.614
213,58.733
214,58.857
215,58.962
216,59.111
217,59.253
218,59.420
219,59.583
220,59.641
221,59.621
222,59.700
223,59.784
224,59.847
225,59.986
226,60.117
227,60.167
228,60.279
229,60.350
230,60.471
231,60.471
232,60.412
233,60.507
234,60.574
235,60.704
236,60.820
237,60.928
238,61.139
239,61.242
240,61.297
241,61.365
242,61.467
243,61.650
244,61.813
245,61.954
246,62.116
247,62.255
248,62.421
249,62.541
250,62.586
251,62.577
252,62.643
253,62.632
254,62.634
255,62.655
256,62.677
257,62.714
258,62.675
259,62.515
260,62.528
261,62.551
262,62.459
263,62.396
264,62.469
265,62.582
266,62.729
267,62.833
268,62.915
269,62.909
270,62.947
271,63.023
272,62.917
273,62.857
274,62.763
275,62.670
276,62.480
277,62.244
278,62.062
279,61.853
280,61.649
281,61.452
282,61.277
283,61.233
284,61.154
285,61.027
286,60.917
287,60.918
288,60.796
289,60.784
290,60.695
291,60.702
292,60.754
293,60.690
294,60.728
295,60.748
296,60.816
297,60.871
298,60.937
299,60.997
300,61.068
301,61.255
302,61.453
303,61.708
304,61.891
305,62.153
306,62.411
307,62.601
308,62.824
309,63.093
310,63.374
311,63.558
312,63.740
313,63.956
314,64.169
315,64.372
316,64.562
317,64.770
318,64.906
319,65.141
320,65.367
321,65.556
322,65.759
323,65.963
324,66.322
325,66.668
326,66.931
327,67.202
328,67.470
329,67.781
330,68.108
331,68.322
332,68.550
333,68.682
334,68.866
335,69.125
336,69.341
337,69.407
338,69.441
339,69.476
340,69.426
341,69.449
342,69.463
343,69.458
344,69.463
345,69.454
346,69.334
347,69.232
348,69.200
349,69.189
350,69.201
351,69.070
352,69.045
353,69.059
354,69.116
355,69.160
356,69.096
357,69.077
358,69.228
359,69.275
360,69.278
361,69.329
362,69.430
363,69.398
364,69.449
365,69.294
366,69.149
367,69.106
368,68.905
369,68.658
370,68.434
371,68.140
372,67.762
373,67.481
374,67.088
375,66.556
376,66.153
377,65.807
378,65.335
379,65.013
380,64.582
381,64.352
382,63.953
383,63.746
384,63.467
385,63.221
386,63.104
387,63.016
388,63.004
389,63.072
390,63.016
391,62.962
392,62.998
393,63.079
394,63.229
395,63.465
396,63.644
397,63.910
398,64.209
399,64.456
400,64.620
401,64.825
402,65.057
403,65.274
404,65.449
405,65.561
406,65.731
407,66.136
408,66.457
409,66.800
410,67.125
411,67.582
412,67.892
413,68.352
414,68.787
415,69.212
416,69.711
417,70.199
418,70.498
419,70.846
420,71.169
421,71.375
422,71.656
423,71.795
424,72.002
425,72.142
426,72.329
427,72.431
428,72.557
429,72.700
430,72.861
431,73.039
432,73.140
433,73.214
434,73.269
435,73.299
436,73.294
437,73.248
438,73.128
439,73.011
440,72.906
441,72.810
442,72.546
443,72.414
444,72.282
445,72.225
446,72.139
447,72.044
448,72.000
449,71.954
450,71.914
451,71.946
452,71.846
453,71.689
454,71.381
455,71.221
456,70.920
457,70.545
458,70.190
459,69.830
460,69.393
461,68.975
462,68.678
463,68.319
464,68.188
465,67.840
466,67.665
467,67.392
468,67.196
469,67.075
470,66.942
471,66.736
472,66.527
473,66.412
474,66.262
475,66.131
476,65.787
477,65.637
478,65.493
479,65.392
480,65.328
481,65.342
482,65.378
483,65.389
484,65.474
485,65.693
486,65.931
487,66.221
488,66.523
489,66.854
490,67.350
491,67.776
492,68.390
493,68.845
494,69.369
495,69.920
496,70.476
497,70.998
498,71.627
499,72.089
500,72.728
501,73.278
502,73.782
503,74.133
504,74.682
505,75.159
506,75.570
507,75.948
508,76.289
509,76.724
510,77.074
511,77.416
512,77.636
513,77.951
514,78.218
515,78.380
516,78.579
517,78.819
518,79.024
519,79.236
520,79.470
521,79.679
522,79.826
523,79.897
524,79.877
525,79.922
526,79.956
527,79.811
528,79.793
529,79.759
530,79.712
531,79.700
532,79.696
533,79.653
534,79.701
535,79.769
536,79.842
537,79.811
538,79.785
539,79.806
540,79.607
541,79.532
542,79.408
543,79.117
544,78.694
545,78.150
546,77.610
547,77.034
548,76.229
549,75.460
550,74.699
551,73.968
552,73.094
553,72.322
554,71.518
555,70.811
556,70.078
557,69.352
558,68.717
559,68.084
560,67.518
561,66.952
562,66.484
563,65.992
564,65.621
565,65.252
566,64.902
567,64.638
568,64.543
569,64.292
570,64.220
571,64.248
572,64.444
573,64.672
574,65.051
575,65.583
576,66.152
577,66.725
578,67.526
579,68.400
580,69.396
581,70.351
582,71.392
583,72.367
584,73.453
585,74.501
586,75.490
587,76.378
588,77.275
589,78.256
590,78.906
591,79.645
592,80.471
593,81.316
594,82.202
595,83.021
596,83.931
597,84.680
598,85.552
599,86.328
600,87.024
601,87.884
602,88.541
603,89.143
604,89.605
605,90.098
606,90.487
607,90.783
608,90.994
609,91.270
610,91.468
611,91.589
612,91.709
613,91.897
614,92.062
615,92.174
616,92.355
617,92.541
618,92.691
619,92.901
620,93.045
621,93.048
622,93.138
623,93.296
624,93.312
625,93.408
626,93.482
627,93.669
628,93.761
629,93.801
630,93.834
631,93.750
632,93.612
633,93.458
634,93.222
635,92.951
636,92.673
637,92.378
638,91.934
639,91.496
640,91.010
641,90.543
642,89.982
643,89.358
644,88.823
645,88.125
646,87.393
647,86.506
648,85.603
649,84.675
650,83.716
651,82.508
652,81.323
653,80.169
654,78.916
655,77.652
656,76.463
657,75.264
658,74.166
659,73.252
660,72.363
661,71.607
662,70.932
663,70.372
664,70.025
665,69.866
666,69.864
667,70.048
668,70.319
669,70.900
670,71.640
671,72.404
672,73.246
673,74.329
674,75.503
675,76.755
676,78.034
677,79.274
678,80.622
679,81.890
680,83.206
681,84.634
682,85.983
683,87.278
684,88.640
685,90.031
686,91.269
687,92.392
688,93.483
689,94.661
690,95.764
691,96.935
692,97.929
693,98.868
694,99.760
695,100.552
696,101.333
697,101.852
698,102.365
699,102.872
700,103.340
701,103.698
702,104.017
703,104.276
704,104.547
705,104.905
706,105.191
707,105.488
708,105.933
709,106.269
710,106.786
711,107.144
712,107.525
713,107.919
714,108.236
715,108.537
716,108.702
717,108.942
718,109.208
719,109.462
720,109.666
721,109.811
722,109.974
723,110.095
724,110.076
725,110.037
726,110.154
727,110.155
728,110.148
729,110.069
730,109.871
731,109.602
732,109.272
733,108.970
734,108.465
735,107.897
736,107.364
737,106.884
738,106.309
739,105.720
740,105.150
741,104.482
742,103.905
743,103.291
744,102.618
745,101.938
746,101.307
747,100.882
748,100.415
749,100.025
750,99.584
751,99.111
752,98.751
753,98.437
754,98.248
755,98.160
756,98.187
757,98.365
758,98.644
759,98.953
760,99.490
761,100.072
762,100.673
763,101.469
764,102.357
765,103.414
766,104.492
767,105.651
768,106.855
769,108.177
770,109.419
771,110.624
772,111.882
773,113.117
774,114.343
775,115.688
776,117.164
777,118.732
778,120.543
779,122.642
780,125.009
781,127.536
782,130.450
783,133.430
784,136.626
785,139.914
786,143.306
787,146.747
788,150.153
789,153.224
790,156.164
791,158.727
792,161.213
793,163.531
794,165.805
795,168.106
796,170.472
797,172.707
798,174.846
799,177.000
800,179.160
801,181.207
802,183.152
803,185.079
804,186.962
805,188.835
806,190.858
807,192.848
808,194.684
809,196.355
810,197.858
811,199.288
812,200.544
813,201.719
814,202.969
815,204.202
816,205.462
817,206.596
818,207.470
819,208.242
820,208.865
821,209.453
822,210.228
823,211.066
824,211.870
825,212.646
826,213.350
827,214.099
828,214.588
829,215.009
830,215.569
831,216.226
832,216.814
833,217.197
834,217.426
835,217.759
836,218.066
837,218.402
838,218.658
839,219.016
840,219.490
841,219.975
842,220.428
843,220.930
844,221.318
845,221.625
846,221.949
847,222.324
848,222.750
849,223.068
850,223.364
851,223.505
852,223.449
853,223.449
854,223.044
855,222.450
856,221.767
857,220.940
858,220.271
859,219.564
860,218.769
861,217.850
862,216.810
863,215.655
864,214.558
865,213.554
866,212.829
867,212.294
868,211.870
869,211.290
870,210.720
871,210.196
872,209.695
873,209.258
874,208.844
875,208.440
876,207.938
877,207.414
878,206.881
879,206.298
880,205.682
881,204.950
882,204.272
883,203.460
884,202.536
885,201.611
886,200.630
887,199.534
888,198.466
889,197.284
890,196.033
891,194.831
892,193.497
893,192.195
894,190.729
895,189.127
896,187.455
897,185.735
898,183.937
899,182.124
900,180.162
901,178.025
902,175.716
903,173.005
904,170.289
905,167.573
906,164.974
907,162.209
908,159.228
909,155.908
910,152.452
911,148.730
912,144.841
913,141.034
914,137.404
915,134.157
916,131.198
917,128.357
918,125.582
919,122.862
920,120.440
921,118.415
922,116.851
923,115.449
924,114.118
925,112.774
926,111.300
927,109.779
928,108.223
929,106.651
930,104.985
931,103.341
932,101.641
933,99.960
934,98.369
935,96.901
936,95.539
937,94.363
938,93.306
939,92.463
940,91.715
941,91.176
942,90.946
943,90.858
944,90.892
945,91.158
946,91.595
947,92.145
948,92.841
949,93.516
950,94.266
951,94.997
952,95.830
953,96.550
954,97.289
955,98.041
956,98.788
957,99.521
958,100.173
959,100.908
960,101.524
961,101.973
962,102.483
963,102.925
964,103.349
965,103.658
966,104.000
967,104.219
968,104.392
969,104.546
970,104.718
971,104.890
972,104.962
973,104.995
974,105.086
975,105.254
976,105.415
977,105.522
978,105.528
979,105.493
980,105.368
981,105.348
982,105.286
983,105.108
984,105.085
985,104.852
986,104.684
987,104.505
988,104.231
989,103.910
990,103.729
991,103.313
992,102.957
993,102.591
994,102.112
995,101.541
996,100.965
997,100.312
998,99.552
999,98.762
1000,97.906
1001,96.953
1002,95.906
1003,94.876
1004,93.854
1005,92.721
1006,91.497
1007,90.287
1008,89.034
1009,87.749
1010,86.431
1011,85.193
1012,83.968
1013,82.787
1014,81.495
1015,80.171
1016,78.852
1017,77.676
1018,76.461
1019,75.250
1020,74.148
1021,73.056
1022,71.952
1023,70.913
1024,70.022
1025,69.226
1026,68.499
1027,67.900
1028,67.414
1029,67.164
1030,67.174
1031,67.296
1032,67.556
1033,67.965
1034,68.694
1035,69.354
1036,70.178
1037,71.178
1038,72.149
1039,73.217
1040,74.301
1041,75.484
1042,76.646
1043,77.783
1044,78.895
1045,79.834
1046,80.799
1047,81.586
1048,82.400
1049,83.102
1050,83.799
1051,84.416
1052,84.986
1053,85.593
1054,86.160
1055,86.653
1056,87.158
1057,87.568
1058,87.952
1059,88.498
1060,88.874
1061,89.280
1062,89.674
1063,89.997
1064,90.390
1065,90.611
1066,90.767
1067,91.033
1068,91.226
1069,91.218
1070,91.129
1071,90.979
1072,90.884
1073,90.681
1074,90.447
1075,90.217
1076,89.939
1077,89.771
1078,89.393
1079,89.099
1080,88.834
1081,88.559
1082,88.335
1083,88.044
1084,87.686
1085,87.541
1086,87.339
1087,87.011
1088,86.535
1089,86.167
1090,85.711
1091,85.183
1092,84.821
1093,84.314
1094,83.879
1095,83.329
1096,82.923
1097,82.400
1098,81.938
1099,81.419
1100,80.993
1101,80.602
1102,80.208
1103,79.722
1104,79.051
1105,78.412
1106,77.741
1107,76.955
1108,76.127
1109,75.156
1110,74.330
1111,73.620
1112,72.916
1113,72.166
1114,71.476
1115,70.751
1116,70.251
1117,69.571
1118,69.165
1119,68.794
1120,68.698
1121,68.694
1122,68.718
1123,68.822
1124,68.979
1125,69.183
1126,69.396
1127,69.745
1128,70.121
1129,70.550
1130,70.960
1131,71.485
1132,71.940
1133,72.413
1134,72.878
1135,73.488
1136,73.849
1137,74.366
1138,75.007
1139,75.429
1140,75.761
1141,76.169
1142,76.501
1143,76.876
1144,77.298
1145,77.684
1146,78.119
1147,78.497
1148,78.818
1149,79.037
1150,79.240
1151,79.426
1152,79.620
1153,79.775
1154,79.869
1155,79.827
1156,79.973
1157,80.043
1158,80.111
1159,80.139
1160,80.096
1161,80.191
1162,80.300
1163,80.392
1164,80.440
1165,80.558
1166,80.560
1167,80.507
1168,80.483
1169,80.342
1170,80.261
1171,80.011
1172,79.798
1173,79.593
1174,79.505
1175,79.265
1176,79.075
1177,78.884
1178,78.655
1179,78.384
1180,78.189
1181,77.942
1182,77.810
1183,77.575
1184,77.286
1185,77.045
1186,76.732
1187,76.307
1188,75.885
1189,75.376
1190,74.931
1191,74.509
1192,74.064
1193,73.623
1194,73.123
1195,72.668
1196,72.167
1197,71.698
1198,71.273
1199,70.938
1200,70.690
1201,70.524
1202,70.427
1203,70.168
1204,69.950
1205,69.790
1206,69.599
1207,69.447
1208,69.232
1209,69.245
1210,69.233
1211,69.289
1212,69.334
1213,69.419
1214,69.602
1215,69.671
1216,69.863
1217,70.138
1218,70.349
1219,70.581
1220,70.879
1221,71.079
1222,71.205
1223,71.265
1224,71.493
1225,71.698
1226,71.769
1227,71.888
1228,72.024
1229,72.152
1230,72.431
1231,72.593
1232,72.719
1233,72.874
1234,73.074
1235,73.252
1236,73.421
1237,73.562
1238,73.723
1239,73.966
1240,74.135
1241,74.450
1242,74.431
1243,74.323
1244,74.321
1245,74.229
1246,74.184
1247,74.138
1248,74.066
1249,73.956
1250,73.870
1251,73.886
1252,73.861
1253,73.856
1254,73.848
1255,73.826
1256,73.949
1257,74.253
1258,74.584
1259,74.751
1260,74.942
1261,75.190
1262,75.390
1263,75.480
1264,75.432
1265,75.567
1266,75.590
1267,75.694
1268,75.783
1269,75.809
1270,75.677
1271,75.508
1272,75.444
1273,75.276
1274,75.149
1275,74.964
1276,74.822
1277,74.704
1278,74.453
1279,74.184
1280,73.827
1281,73.332
1282,72.921
1283,72.573
1284,72.198
1285,71.848
1286,71.510
1287,71.318
1288,70.997
1289,70.787
1290,70.564
1291,70.318
1292,70.212
1293,70.082
1294,70.034
1295,69.959
1296,69.880
1297,69.831
1298,69.819
1299,69.675
1300,69.587
1301,69.482
1302,69.414
1303,69.374
1304,69.358
1305,69.294
1306,69.336
1307,69.378
1308,69.416
1309,69.441
1310,69.475
1311,69.525
1312,69.629
1313,69.673
1314,69.710
1315,69.773
1316,69.786
1317,69.802
1318,69.842
1319,69.840
1320,69.823
1321,69.796
1322,69.744
1323,69.703
1324,69.621
1325,69.565
1326,69.600
1327,69.556
1328,69.537
1329,69.648
1330,69.718
1331,69.775
1332,69.905
1333,70.079
1334,70.328
1335,70.490
1336,70.705
1337,70.897
1338,71.026
1339,71.166
1340,71.309
1341,71.451
1342,71.622
1343,71.551
1344,71.620
1345,71.626
1346,71.507
1347,71.440
1348,71.234
1349,71.055
1350,70.908
1351,70.717
1352,70.545
1353,70.472
1354,70.303
1355,70.158
1356,70.124
1357,70.053
1358,69.881
1359,69.780
1360,69.695
1361,69.548
1362,69.468
1363,69.432
1364,69.211
1365,69.058
1366,68.857
1367,68.697
1368,68.570
1369,68.435
1370,68.205
1371,68.094
1372,67.968
1373,67.841
1374,67.770
1375,67.767
1376,67.753
1377,67.605
1378,67.586
1379,67.500
1380,67.454
1381,67.439
1382,67.475
1383,67.555
1384,67.585
1385,67.516
1386,67.499
1387,67.510
1388,67.590
1389,67.617
1390,67.622
1391,67.639
1392,67.638
1393,67.662
1394,67.700
1395,67.713
1396,67.622
1397,67.623
1398,67.696
1399,67.696
1400,67.718
1401,67.723
1402,67.772
1403,67.800
1404,67.758
1405,67.723
1406,67.763
1407,67.689
1408,67.666
1409,67.650
1410,67.551
1411,67.471
1412,67.388
1413,67.321
1414,67.291
1415,67.280
1416,67.337
1417,67.287
1418,67.258
1419,67.260
1420,67.209
1421,67.165
1422,67.124
1423,67.069
1424,67.016
1425,66.902
1426,66.817
1427,66.683
1428,66.518
1429,66.351
1430,66.270
1431,66.148
1432,65.953
1433,65.912
1434,65.829
1435,65.673
1436,65.632
1437,65.532
1438,65.506
1439,65.388
1440,65.305
1441,65.197
1442,65.073
1443,64.924
1444,64.694
1445,64.547
1446,64.458
1447,64.243
1448,63.975
1449,63.747
1450,63.543
1451,63.375
1452,63.129
1453,62.976
1454,62.724
1455,62.545
1456,62.361
1457,62.197
1458,62.053
1459,62.040
1460,61.977
1461,62.003
1462,62.049
1463,62.071
1464,62.227
1465,62.361
1466,62.457
1467,62.525
1468,62.654
1469,62.789
1470,62.885
1471,63.033
1472,63.169
1473,63.219
1474,63.320
1475,63.508
1476,63.659
1477,63.684
1478,63.692
1479,63.790
1480,63.804
1481,63.892
1482,63.910
1483,63.886
1484,63.790
1485,63.757
1486,63.685
1487,63.518
1488,63.499
1489,63.551
1490,63.701
1491,63.787
1492,63.788
1493,63.926
1494,64.001
1495,64.103
1496,64.167
1497,64.328
1498,64.520
1499,64.693
1500,64.838
1501,64.973
1502,65.017
1503,65.115
1504,65.203
1505,65.354
1506,65.484
1507,65.575
1508,65.712
1509,65.801
1510,65.865
1511,65.916
1512,66.013
1513,66.135
1514,66.256
1515,66.349
1516,66.401
1517,66.409
1518,66.439
1519,66.531
1520,66.601
1521,66.747
1522,66.746
1523,66.870
1524,66.902
1525,67.030
1526,67.062
1527,67.057
1528,67.127
1529,67.098
1530,67.011
1531,67.056
1532,66.987
1533,66.902
1534,66.769
1535,66.512
1536,66.219
1537,65.989
1538,65.742
1539,65.338
1540,64.898
1541,64.439
1542,64.094
1543,63.676
1544,63.179
1545,62.807
1546,62.392
1547,62.090
1548,61.885
1549,61.729
1550,61.629
1551,61.554
1552,61.420
1553,61.399
1554,61.355
1555,61.244
1556,61.119
1557,61.038
1558,60.860
1559,60.743
1560,60.542
1561,60.409
1562,60.175
1563,59.953
1564,59.834
1565,59.718
1566,59.710
1567,59.733
1568,59.723
1569,59.838
1570,59.925
1571,59.971
1572,60.091
1573,60.093
1574,60.172
1575,60.238
1576,60.364
1577,60.494
1578,60.617
1579,60.696
1580,60.859
1581,60.963
1582,61.120
1583,61.225
1584,61.441
1585,61.687
1586,61.945
1587,62.201
1588,62.448
1589,62.671
1590,62.824
1591,63.027
1592,63.220
1593,63.299
1594,63.410
1595,63.615
1596,63.755
1597,63.902
1598,63.950
1599,64.045
1600,64.124
1601,64.173
1602,64.290
1603,64.453
1604,64.580
1605,64.689
1606,64.676
1607,64.678
1608,64.754
1609,64.832
1610,64.813
1611,64.679
1612,64.618
1613,64.604
1614,64.392
1615,64.390
1616,64.293
1617,63.920
1618,63.884
1619,63.788
1620,63.520
1621,63.390
1622,63.072
1623,62.893
1624,62.640
1625,62.440
1626,62.237
1627,61.934
1628,61.690
1629,61.488
1630,61.296
1631,61.107
1632,60.952
1633,60.799
1634,60.566
1635,60.378
1636,60.173
1637,59.975
1638,59.847
1639,59.598
1640,59.517
1641,59.476
1642,59.267
1643,59.037
1644,58.840
1645,58.666
1646,58.508
1647,58.356
1648,58.289
1649,58.150
1650,58.043
1651,57.985
1652,57.960
1653,57.978
1654,57.944
1655,57.970
1656,58.050
1657,58.116
1658,58.051
1659,58.075
1660,58.019
1661,58.043
1662,58.017
1663,58.032
1664,58.055
1665,58.072
1666,58.022
1667,57.966
1668,57.944
1669,57.957
1670,57.965
1671,57.980
1672,58.025
1673,58.121
1674,58.394
1675,58.452
1676,58.480
1677,58.608
1678,58.654
1679,58.495
1680,58.496
1681,58.505
1682,58.542
1683,58.599
1684,58.564
1685,58.593
1686,58.529
1687,58.432
1688,58.448
1689,58.395
1690,58.565
1691,58.672
1692,58.694
1693,58.753
1694,58.843
1695,58.889
1696,58.909
1697,58.964
1698,59.008
1699,58.954
1700,58.938
1701,58.922
1702,58.935
1703,58.957
